5.00000 994.000
5.01500 1046.000
5.03000 966.000
5.04500 995.000
5.06000 981.000
5.07500 1010.000
5.09000 999.000
5.10500 980.000
5.12000 971.000
5.13500 949.000
5.15000 962.000
5.16500 982.000
5.18000 984.000
5.19500 988.000
5.21000 992.000
5.22500 1007.000
5.24000 972.000
5.25500 1009.000
5.27000 999.000
5.28500 1032.000
5.30000 1019.000
5.31500 970.000
5.33000 962.000
5.34500 1032.000
5.36000 979.000
5.37500 955.000
5.39000 1046.000
5.40500 1011.000
5.42000 1019.000
5.43500 968.000
5.45000 954.000
5.46500 1001.000
5.48000 992.000
5.49500 945.000
5.51000 979.000
5.52500 1003.000
5.54000 1031.000
5.55500 1043.000
5.57000 994.000
5.58500 1018.000
5.60000 996.000
5.61500 1003.000
5.63000 1028.000
5.64500 999.000
5.66000 997.000
5.67500 953.000
5.69000 1002.000
5.70500 1030.000
5.72000 1058.000
5.73500 1037.000
5.75000 1054.000
5.76500 1026.000
5.78000 990.000
5.79500 1007.000
5.81000 1016.000
5.82500 1018.000
5.84000 974.000
5.85500 980.000
5.87000 986.000
5.88500 1008.000
5.90000 981.000
5.91500 966.000
5.93000 1029.000
5.94500 984.000
5.96000 997.000
5.97500 994.000
5.99000 963.000
6.00500 986.000
6.02000 986.000
6.03500 994.000
6.05000 944.000
6.06500 1011.000
6.08000 1004.000
6.09500 978.000
6.11000 1015.000
6.12500 1019.000
6.14000 957.000
6.15500 948.000
6.17000 912.000
6.18500 948.000
6.20000 945.000
6.21500 921.000
6.23000 974.000
6.24500 999.000
6.26000 977.000
6.27500 963.000
6.29000 954.000
6.30500 966.000
6.32000 967.000
6.33500 979.000
6.35000 987.000
6.36500 975.000
6.38000 977.000
6.39500 963.000
6.41000 988.000
6.42500 967.000
6.44000 937.000
6.45500 958.000
6.47000 983.000
6.48500 1016.000
6.50000 962.000
6.51500 998.000
6.53000 949.000
6.54500 948.000
6.56000 960.000
6.57500 942.000
6.59000 934.000
6.60500 968.000
6.62000 899.000
6.63500 875.000
6.65000 920.000
6.66500 905.000
6.68000 912.000
6.69500 863.000
6.71000 868.000
6.72500 896.000
6.74000 864.000
6.75500 905.000
6.77000 908.000
6.78500 894.000
6.80000 879.000
6.81500 921.000
6.83000 892.000
6.84500 872.000
6.86000 861.000
6.87500 842.000
6.89000 818.000
6.90500 806.000
6.92000 835.000
6.93500 881.000
6.95000 908.000
6.96500 861.000
6.98000 827.000
6.99500 833.000
7.01000 823.000
7.02500 878.000
7.04000 858.000
7.05500 852.000
7.07000 862.000
7.08500 870.000
7.10000 832.000
7.11500 835.000
7.13000 854.000
7.14500 838.000
7.16000 871.000
7.17500 843.000
7.19000 874.000
7.20500 876.000
7.22000 826.000
7.23500 849.000
7.25000 873.000
7.26500 847.000
7.28000 879.000
7.29500 858.000
7.31000 833.000
7.32500 898.000
7.34000 865.000
7.35500 841.000
7.37000 856.000
7.38500 853.000
7.40000 838.000
7.41500 846.000
7.43000 849.000
7.44500 855.000
7.46000 830.000
7.47500 786.000
7.49000 827.000
7.50500 796.000
7.52000 773.000
7.53500 814.000
7.55000 810.000
7.56500 835.000
7.58000 793.000
7.59500 833.000
7.61000 847.000
7.62500 788.000
7.64000 784.000
7.65500 757.000
7.67000 811.000
7.68500 817.000
7.70000 791.000
7.71500 783.000
7.73000 783.000
7.74500 752.000
7.76000 801.000
7.77500 818.000
7.79000 819.000
7.80500 797.000
7.82000 807.000
7.83500 848.000
7.85000 818.000
7.86500 808.000
7.88000 779.000
7.89500 784.000
7.91000 749.000
7.92500 801.000
7.94000 776.000
7.95500 795.000
7.97000 761.000
7.98500 757.000
8.00000 799.000
8.01500 730.000
8.03000 755.000
8.04500 789.000
8.06000 806.000
8.07500 795.000
8.09000 783.000
8.10500 780.000
8.12000 795.000
8.13500 764.000
8.15000 729.000
8.16500 767.000
8.18000 738.000
8.19500 738.000
8.21000 726.000
8.22500 761.000
8.24000 759.000
8.25500 736.000
8.27000 756.000
8.28500 768.000
8.30000 738.000
8.31500 716.000
8.33000 752.000
8.34500 735.000
8.36000 720.000
8.37500 713.000
8.39000 729.000
8.40500 695.000
8.42000 702.000
8.43500 708.000
8.45000 749.000
8.46500 734.000
8.48000 718.000
8.49500 748.000
8.51000 688.000
8.52500 706.000
8.54000 717.000
8.55500 696.000
8.57000 720.000
8.58500 728.000
8.60000 739.000
8.61500 688.000
8.63000 710.000
8.64500 679.000
8.66000 687.000
8.67500 700.000
8.69000 716.000
8.70500 715.000
8.72000 710.000
8.73500 711.000
8.75000 698.000
8.76500 712.000
8.78000 677.000
8.79500 717.000
8.81000 695.000
8.82500 747.000
8.84000 702.000
8.85500 680.000
8.87000 704.000
8.88500 695.000
8.90000 701.000
8.91500 727.000
8.93000 676.000
8.94500 699.000
8.96000 696.000
8.97500 689.000
8.99000 683.000
9.00500 678.000
9.02000 750.000
9.03500 710.000
9.05000 691.000
9.06500 735.000
9.08000 725.000
9.09500 711.000
9.11000 710.000
9.12500 736.000
9.14000 727.000
9.15500 759.000
9.17000 790.000
9.18500 791.000
9.20000 780.000
9.21500 772.000
9.23000 765.000
9.24500 739.000
9.26000 737.000
9.27500 743.000
9.29000 703.000
9.30500 707.000
9.32000 674.000
9.33500 645.000
9.35000 688.000
9.36500 667.000
9.38000 669.000
9.39500 632.000
9.41000 625.000
9.42500 651.000
9.44000 656.000
9.45500 660.000
9.47000 648.000
9.48500 627.000
9.50000 664.000
9.51500 641.000
9.53000 648.000
9.54500 659.000
9.56000 643.000
9.57500 631.000
9.59000 665.000
9.60500 644.000
9.62000 674.000
9.63500 625.000
9.65000 653.000
9.66500 667.000
9.68000 642.000
9.69500 663.000
9.71000 665.000
9.72500 665.000
9.74000 658.000
9.75500 681.000
9.77000 638.000
9.78500 652.000
9.80000 685.000
9.81500 659.000
9.83000 646.000
9.84500 632.000
9.86000 654.000
9.87500 650.000
9.89000 672.000
9.90500 670.000
9.92000 702.000
9.93500 697.000
9.95000 652.000
9.96500 646.000
9.98000 618.000
9.99500 687.000
10.01000 686.000
10.02500 688.000
10.04000 697.000
10.05500 728.000
10.07000 696.000
10.08500 716.000
10.10000 739.000
10.11500 748.000
10.13000 736.000
10.14500 747.000
10.16000 795.000
10.17500 794.000
10.19000 783.000
10.20500 833.000
10.22000 868.000
10.23500 916.000
10.25000 934.000
10.26500 971.000
10.28000 1006.000
10.29500 1003.000
10.31000 1065.000
10.32500 1040.000
10.34000 959.000
10.35500 837.000
10.37000 757.000
10.38500 773.000
10.40000 721.000
10.41500 700.000
10.43000 657.000
10.44500 642.000
10.46000 609.000
10.47500 609.000
10.49000 589.000
10.50500 666.000
10.52000 628.000
10.53500 632.000
10.55000 651.000
10.56500 653.000
10.58000 630.000
10.59500 649.000
10.61000 623.000
10.62500 623.000
10.64000 630.000
10.65500 634.000
10.67000 636.000
10.68500 637.000
10.70000 625.000
10.71500 624.000
10.73000 656.000
10.74500 682.000
10.76000 659.000
10.77500 660.000
10.79000 677.000
10.80500 722.000
10.82000 723.000
10.83500 719.000
10.85000 734.000
10.86500 754.000
10.88000 734.000
10.89500 741.000
10.91000 788.000
10.92500 858.000
10.94000 854.000
10.95500 903.000
10.97000 902.000
10.98500 878.000
11.00000 865.000
11.01500 833.000
11.03000 800.000
11.04500 795.000
11.06000 768.000
11.07500 769.000
11.09000 782.000
11.10500 756.000
11.12000 774.000
11.13500 775.000
11.15000 796.000
11.16500 812.000
11.18000 874.000
11.19500 897.000
11.21000 906.000
11.22500 928.000
11.24000 986.000
11.25500 1055.000
11.27000 1101.000
11.28500 1173.000
11.30000 1265.000
11.31500 1325.000
11.33000 1345.000
11.34500 1512.000
11.36000 1530.000
11.37500 1538.000
11.39000 1387.000
11.40500 1244.000
11.42000 1109.000
11.43500 968.000
11.45000 907.000
11.46500 855.000
11.48000 757.000
11.49500 731.000
11.51000 734.000
11.52500 719.000
11.54000 695.000
11.55500 658.000
11.57000 637.000
11.58500 664.000
11.60000 634.000
11.61500 636.000
11.63000 665.000
11.64500 654.000
11.66000 664.000
11.67500 670.000
11.69000 628.000
11.70500 653.000
11.72000 690.000
11.73500 688.000
11.75000 651.000
11.76500 671.000
11.78000 703.000
11.79500 656.000
11.81000 689.000
11.82500 736.000
11.84000 738.000
11.85500 770.000
11.87000 773.000
11.88500 790.000
11.90000 826.000
11.91500 810.000
11.93000 864.000
11.94500 847.000
11.96000 786.000
11.97500 842.000
11.99000 900.000
12.00500 913.000
12.02000 912.000
12.03500 941.000
12.05000 961.000
12.06500 1053.000
12.08000 1097.000
12.09500 1173.000
12.11000 1251.000
12.12500 1346.000
12.14000 1427.000
12.15500 1576.000
12.17000 1769.000
12.18500 1948.000
12.20000 2142.000
12.21500 2226.000
12.23000 2390.000
12.24500 2525.000
12.26000 2648.000
12.27500 2578.000
12.29000 2492.000
12.30500 2227.000
12.32000 1889.000
12.33500 1592.000
12.35000 1362.000
12.36500 1183.000
12.38000 1047.000
12.39500 940.000
12.41000 858.000
12.42500 842.000
12.44000 788.000
12.45500 754.000
12.47000 696.000
12.48500 693.000
12.50000 672.000
12.51500 689.000
12.53000 641.000
12.54500 657.000
12.56000 663.000
12.57500 670.000
12.59000 669.000
12.60500 679.000
12.62000 672.000
12.63500 653.000
12.65000 664.000
12.66500 641.000
12.68000 662.000
12.69500 668.000
12.71000 665.000
12.72500 661.000
12.74000 672.000
12.75500 678.000
12.77000 692.000
12.78500 713.000
12.80000 693.000
12.81500 700.000
12.83000 753.000
12.84500 762.000
12.86000 745.000
12.87500 774.000
12.89000 787.000
12.90500 838.000
12.92000 820.000
12.93500 880.000
12.95000 942.000
12.96500 1014.000
12.98000 1057.000
12.99500 1095.000
13.01000 1167.000
13.02500 1254.000
13.04000 1338.000
13.05500 1380.000
13.07000 1372.000
13.08500 1325.000
13.10000 1266.000
13.11500 1148.000
13.13000 1084.000
13.14500 1030.000
13.16000 1029.000
13.17500 1006.000
13.19000 1060.000
13.20500 1083.000
13.22000 1075.000
13.23500 1161.000
13.25000 1165.000
13.26500 1182.000
13.28000 1204.000
13.29500 1221.000
13.31000 1165.000
13.32500 1241.000
13.34000 1181.000
13.35500 1163.000
13.37000 1182.000
13.38500 1199.000
13.40000 1213.000
13.41500 1354.000
13.43000 1451.000
13.44500 1577.000
13.46000 1562.000
13.47500 1618.000
13.49000 1620.000
13.50500 1463.000
13.52000 1318.000
13.53500 1158.000
13.55000 1059.000
13.56500 994.000
13.58000 931.000
13.59500 891.000
13.61000 833.000
13.62500 814.000
13.64000 776.000
13.65500 775.000
13.67000 793.000
13.68500 774.000
13.70000 759.000
13.71500 758.000
13.73000 773.000
13.74500 768.000
13.76000 758.000
13.77500 779.000
13.79000 823.000
13.80500 834.000
13.82000 803.000
13.83500 836.000
13.85000 789.000
13.86500 807.000
13.88000 817.000
13.89500 748.000
13.91000 788.000
13.92500 839.000
13.94000 846.000
13.95500 932.000
13.97000 910.000
13.98500 834.000
14.00000 810.000
14.01500 832.000
14.03000 829.000
14.04500 816.000
14.06000 838.000
14.07500 853.000
14.09000 871.000
14.10500 919.000
14.12000 895.000
14.13500 897.000
14.15000 965.000
14.16500 1026.000
14.18000 1052.000
14.19500 1136.000
14.21000 1192.000
14.22500 1256.000
14.24000 1291.000
14.25500 1306.000
14.27000 1265.000
14.28500 1258.000
14.30000 1133.000
14.31500 1130.000
14.33000 1067.000
14.34500 1013.000
14.36000 1014.000
14.37500 1007.000
14.39000 993.000
14.40500 1049.000
14.42000 1101.000
14.43500 1139.000
14.45000 1181.000
14.46500 1274.000
14.48000 1323.000
14.49500 1448.000
14.51000 1488.000
14.52500 1530.000
14.54000 1688.000
14.55500 1902.000
14.57000 2036.000
14.58500 2130.000
14.60000 2427.000
14.61500 2584.000
14.63000 2662.000
14.64500 2757.000
14.66000 2829.000
14.67500 2718.000
14.69000 2532.000
14.70500 2337.000
14.72000 2160.000
14.73500 1963.000
14.75000 1832.000
14.76500 1828.000
14.78000 1874.000
14.79500 1830.000
14.81000 1950.000
14.82500 1988.000
14.84000 2090.000
14.85500 2202.000
14.87000 2329.000
14.88500 2544.000
14.90000 2712.000
14.91500 2945.000
14.93000 3273.000
14.94500 3690.000
14.96000 4047.000
14.97500 4328.000
14.99000 4331.000
15.00500 4153.000
15.02000 3631.000
15.03500 3091.000
15.05000 2520.000
15.06500 1976.000
15.08000 1661.000
15.09500 1454.000
15.11000 1248.000
15.12500 1161.000
15.14000 1119.000
15.15500 1061.000
15.17000 1024.000
15.18500 986.000
15.20000 913.000
15.21500 903.000
15.23000 866.000
15.24500 861.000
15.26000 860.000
15.27500 813.000
15.29000 804.000
15.30500 799.000
15.32000 786.000
15.33500 753.000
15.35000 750.000
15.36500 771.000
15.38000 813.000
15.39500 791.000
15.41000 789.000
15.42500 794.000
15.44000 797.000
15.45500 794.000
15.47000 745.000
15.48500 738.000
15.50000 752.000
15.51500 744.000
15.53000 749.000
15.54500 747.000
15.56000 710.000
15.57500 747.000
15.59000 739.000
15.60500 743.000
15.62000 748.000
15.63500 746.000
15.65000 730.000
15.66500 707.000
15.68000 710.000
15.69500 774.000
15.71000 761.000
15.72500 760.000
15.74000 798.000
15.75500 780.000
15.77000 776.000
15.78500 770.000
15.80000 788.000
15.81500 792.000
15.83000 782.000
15.84500 872.000
15.86000 922.000
15.87500 914.000
15.89000 986.000
15.90500 1035.000
15.92000 1159.000
15.93500 1179.000
15.95000 1287.000
15.96500 1331.000
15.98000 1448.000
15.99500 1602.000
16.01000 1703.000
16.02500 1784.000
16.04000 1975.000
16.05500 2135.000
16.07000 2153.000
16.08500 2166.000
16.10000 2204.000
16.11500 2126.000
16.13000 2255.000
16.14500 2274.000
16.16000 2345.000
16.17500 2447.000
16.19000 2497.000
16.20500 2592.000
16.22000 2604.000
16.23500 2422.000
16.25000 2249.000
16.26500 1976.000
16.28000 1781.000
16.29500 1625.000
16.31000 1539.000
16.32500 1465.000
16.34000 1438.000
16.35500 1457.000
16.37000 1416.000
16.38500 1441.000
16.40000 1508.000
16.41500 1653.000
16.43000 1719.000
16.44500 1734.000
16.46000 1730.000
16.47500 1734.000
16.49000 1704.000
16.50500 1531.000
16.52000 1405.000
16.53500 1345.000
16.55000 1248.000
16.56500 1196.000
16.58000 1267.000
16.59500 1330.000
16.61000 1392.000
16.62500 1418.000
16.64000 1517.000
16.65500 1630.000
16.67000 1865.000
16.68500 1952.000
16.70000 2154.000
16.71500 2307.000
16.73000 2637.000
16.74500 2929.000
16.76000 3273.000
16.77500 3637.000
16.79000 3970.000
16.80500 4475.000
16.82000 4892.000
16.83500 5224.000
16.85000 5570.000
16.86500 5708.000
16.88000 5498.000
16.89500 4804.000
16.91000 4185.000
16.92500 3536.000
16.94000 3084.000
16.95500 2752.000
16.97000 2461.000
16.98500 2208.000
17.00000 2095.000
17.01500 2059.000
17.03000 2082.000
17.04500 2142.000
17.06000 2178.000
17.07500 2236.000
17.09000 2268.000
17.10500 2445.000
17.12000 2481.000
17.13500 2399.000
17.15000 2481.000
17.16500 2578.000
17.18000 2587.000
17.19500 2680.000
17.21000 2894.000
17.22500 3103.000
17.24000 3324.000
17.25500 3329.000
17.27000 3424.000
17.28500 3406.000
17.30000 3231.000
17.31500 2928.000
17.33000 2629.000
17.34500 2305.000
17.36000 2026.000
17.37500 1792.000
17.39000 1644.000
17.40500 1495.000
17.42000 1381.000
17.43500 1294.000
17.45000 1244.000
17.46500 1300.000
17.48000 1289.000
17.49500 1348.000
17.51000 1376.000
17.52500 1469.000
17.54000 1565.000
17.55500 1736.000
17.57000 1952.000
17.58500 2104.000
17.60000 2343.000
17.61500 2551.000
17.63000 2890.000
17.64500 3189.000
17.66000 3523.000
17.67500 3985.000
17.69000 4376.000
17.70500 4699.000
17.72000 4898.000
17.73500 4790.000
17.75000 4465.000
17.76500 3974.000
17.78000 3478.000
17.79500 3005.000
17.81000 2769.000
17.82500 2541.000
17.84000 2353.000
17.85500 2342.000
17.87000 2392.000
17.88500 2358.000
17.90000 2320.000
17.91500 2301.000
17.93000 2193.000
17.94500 2165.000
17.96000 2046.000
17.97500 1967.000
17.99000 1803.000
18.00500 1618.000
18.02000 1482.000
18.03500 1274.000
18.05000 1159.000
18.06500 1006.000
18.08000 972.000
18.09500 927.000
18.11000 913.000
18.12500 828.000
18.14000 853.000
18.15500 811.000
18.17000 810.000
18.18500 798.000
18.20000 764.000
18.21500 773.000
18.23000 765.000
18.24500 813.000
18.26000 775.000
18.27500 788.000
18.29000 747.000
18.30500 753.000
18.32000 796.000
18.33500 829.000
18.35000 817.000
18.36500 828.000
18.38000 836.000
18.39500 845.000
18.41000 865.000
18.42500 894.000
18.44000 975.000
18.45500 1061.000
18.47000 1105.000
18.48500 1257.000
18.50000 1367.000
18.51500 1445.000
18.53000 1574.000
18.54500 1695.000
18.56000 1798.000
18.57500 2079.000
18.59000 2344.000
18.60500 2656.000
18.62000 2970.000
18.63500 3174.000
18.65000 3505.000
18.66500 3715.000
18.68000 3867.000
18.69500 4014.000
18.71000 3834.000
18.72500 3362.000
18.74000 2856.000
18.75500 2520.000
18.77000 2101.000
18.78500 1843.000
18.80000 1595.000
18.81500 1466.000
18.83000 1374.000
18.84500 1352.000
18.86000 1371.000
18.87500 1399.000
18.89000 1484.000
18.90500 1667.000
18.92000 1785.000
18.93500 2007.000
18.95000 2263.000
18.96500 2500.000
18.98000 2931.000
18.99500 3273.000
19.01000 3757.000
19.02500 4387.000
19.04000 5118.000
19.05500 5998.000
19.07000 6783.000
19.08500 7508.000
19.10000 7973.000
19.11500 7573.000
19.13000 6751.000
19.14500 5632.000
19.16000 4441.000
19.17500 3557.000
19.19000 3026.000
19.20500 2663.000
19.22000 2339.000
19.23500 2318.000
19.25000 2369.000
19.26500 2454.000
19.28000 2622.000
19.29500 2827.000
19.31000 3169.000
19.32500 3518.000
19.34000 4035.000
19.35500 4420.000
19.37000 4847.000
19.38500 5187.000
19.40000 5459.000
19.41500 5146.000
19.43000 4504.000
19.44500 3764.000
19.46000 3179.000
19.47500 2730.000
19.49000 2512.000
19.50500 2316.000
19.52000 2309.000
19.53500 2405.000
19.55000 2578.000
19.56500 2725.000
19.58000 2967.000
19.59500 3318.000
19.61000 3754.000
19.62500 4228.000
19.64000 4696.000
19.65500 5134.000
19.67000 5423.000
19.68500 5429.000
19.70000 5327.000
19.71500 5122.000
19.73000 5047.000
19.74500 5065.000
19.76000 5210.000
19.77500 5507.000
19.79000 5730.000
19.80500 5962.000
19.82000 6059.000
19.83500 5915.000
19.85000 5484.000
19.86500 5147.000
19.88000 4775.000
19.89500 4482.000
19.91000 4372.000
19.92500 4335.000
19.94000 4380.000
19.95500 4196.000
19.97000 3918.000
19.98500 3622.000
20.00000 3153.000
20.01500 2762.000
20.03000 2468.000
20.04500 2101.000
20.06000 1868.000
20.07500 1658.000
20.09000 1468.000
20.10500 1325.000
20.12000 1180.000
20.13500 1108.000
20.15000 1039.000
20.16500 1044.000
20.18000 1030.000
20.19500 1004.000
20.21000 1004.000
20.22500 1022.000
20.24000 989.000
20.25500 975.000
20.27000 912.000
20.28500 825.000
20.30000 789.000
20.31500 715.000
20.33000 713.000
20.34500 641.000
20.36000 623.000
20.37500 661.000
20.39000 614.000
20.40500 639.000
20.42000 587.000
20.43500 562.000
20.45000 576.000
20.46500 542.000
20.48000 541.000
20.49500 565.000
20.51000 545.000
20.52500 561.000
20.54000 550.000
20.55500 544.000
20.57000 533.000
20.58500 564.000
20.60000 605.000
20.61500 586.000
20.63000 588.000
20.64500 643.000
20.66000 624.000
20.67500 664.000
20.69000 714.000
20.70500 738.000
20.72000 790.000
20.73500 768.000
20.75000 833.000
20.76500 849.000
20.78000 858.000
20.79500 869.000
20.81000 801.000
20.82500 735.000
20.84000 692.000
20.85500 678.000
20.87000 644.000
20.88500 613.000
20.90000 667.000
20.91500 697.000
20.93000 701.000
20.94500 751.000
20.96000 766.000
20.97500 754.000
20.99000 775.000
21.00500 915.000
21.02000 934.000
21.03500 960.000
21.05000 986.000
21.06500 987.000
21.08000 1007.000
21.09500 1029.000
21.11000 997.000
21.12500 949.000
21.14000 959.000
21.15500 889.000
21.17000 905.000
21.18500 950.000
21.20000 985.000
21.21500 1053.000
21.23000 1120.000
21.24500 1121.000
21.26000 1165.000
21.27500 1187.000
21.29000 1185.000
21.30500 1177.000
21.32000 1239.000
21.33500 1339.000
21.35000 1454.000
21.36500 1521.000
21.38000 1633.000
21.39500 1719.000
21.41000 1679.000
21.42500 1754.000
21.44000 1713.000
21.45500 1628.000
21.47000 1557.000
21.48500 1506.000
21.50000 1502.000
21.51500 1624.000
21.53000 1668.000
21.54500 1903.000
21.56000 1996.000
21.57500 2097.000
21.59000 2228.000
21.60500 2170.000
21.62000 2061.000
21.63500 1771.000
21.65000 1551.000
21.66500 1378.000
21.68000 1284.000
21.69500 1213.000
21.71000 1171.000
21.72500 1080.000
21.74000 1061.000
21.75500 1033.000
21.77000 966.000
21.78500 891.000
21.80000 846.000
21.81500 786.000
21.83000 745.000
21.84500 655.000
21.86000 592.000
21.87500 590.000
21.89000 570.000
21.90500 568.000
21.92000 607.000
21.93500 625.000
21.95000 618.000
21.96500 621.000
21.98000 655.000
21.99500 730.000
22.01000 753.000
22.02500 805.000
22.04000 904.000
22.05500 1005.000
22.07000 1061.000
22.08500 1093.000
22.10000 1110.000
22.11500 1032.000
22.13000 980.000
22.14500 833.000
22.16000 714.000
22.17500 672.000
22.19000 568.000
22.20500 494.000
22.22000 501.000
22.23500 482.000
22.25000 466.000
22.26500 448.000
22.28000 453.000
22.29500 425.000
22.31000 415.000
22.32500 390.000
22.34000 397.000
22.35500 402.000
22.37000 384.000
22.38500 384.000
22.40000 380.000
22.41500 380.000
22.43000 351.000
22.44500 394.000
22.46000 390.000
22.47500 387.000
22.49000 393.000
22.50500 376.000
22.52000 381.000
22.53500 403.000
22.55000 388.000
22.56500 425.000
22.58000 430.000
22.59500 409.000
22.61000 443.000
22.62500 424.000
22.64000 417.000
22.65500 401.000
22.67000 417.000
22.68500 399.000
22.70000 443.000
22.71500 463.000
22.73000 457.000
22.74500 451.000
22.76000 471.000
22.77500 441.000
22.79000 473.000
22.80500 508.000
22.82000 541.000
22.83500 584.000
22.85000 571.000
22.86500 632.000
22.88000 638.000
22.89500 624.000
22.91000 590.000
22.92500 575.000
22.94000 579.000
22.95500 550.000
22.97000 506.000
22.98500 505.000
23.00000 526.000
23.01500 532.000
23.03000 571.000
23.04500 594.000
23.06000 575.000
23.07500 556.000
23.09000 561.000
23.10500 534.000
23.12000 524.000
23.13500 507.000
23.15000 460.000
23.16500 473.000
23.18000 418.000
23.19500 444.000
23.21000 424.000
23.22500 440.000
23.24000 438.000
23.25500 439.000
23.27000 461.000
23.28500 501.000
23.30000 525.000
23.31500 565.000
23.33000 579.000
23.34500 606.000
23.36000 651.000
23.37500 657.000
23.39000 646.000
23.40500 669.000
23.42000 669.000
23.43500 738.000
23.45000 763.000
23.46500 745.000
23.48000 696.000
23.49500 713.000
23.51000 692.000
23.52500 641.000
23.54000 609.000
23.55500 590.000
23.57000 563.000
23.58500 634.000
23.60000 652.000
23.61500 672.000
23.63000 699.000
23.64500 747.000
23.66000 811.000
23.67500 848.000
23.69000 859.000
23.70500 814.000
23.72000 800.000
23.73500 773.000
23.75000 767.000
23.76500 733.000
23.78000 715.000
23.79500 772.000
23.81000 847.000
23.82500 862.000
23.84000 907.000
23.85500 962.000
23.87000 1028.000
23.88500 1088.000
23.90000 1130.000
23.91500 1196.000
23.93000 1314.000
23.94500 1274.000
23.96000 1247.000
23.97500 1110.000
23.99000 965.000
24.00500 843.000
24.02000 754.000
24.03500 673.000
24.05000 647.000
24.06500 635.000
24.08000 625.000
24.09500 588.000
24.11000 573.000
24.12500 632.000
24.14000 625.000
24.15500 629.000
24.17000 711.000
24.18500 753.000
24.20000 700.000
24.21500 692.000
24.23000 654.000
24.24500 555.000
24.26000 561.000
24.27500 530.000
24.29000 518.000
24.30500 496.000
24.32000 526.000
24.33500 502.000
24.35000 492.000
24.36500 497.000
24.38000 464.000
24.39500 470.000
24.41000 461.000
24.42500 438.000
24.44000 427.000
24.45500 448.000
24.47000 416.000
24.48500 423.000
24.50000 432.000
24.51500 445.000
24.53000 479.000
24.54500 456.000
24.56000 490.000
24.57500 493.000
24.59000 523.000
24.60500 553.000
24.62000 603.000
24.63500 621.000
24.65000 653.000
24.66500 679.000
24.68000 722.000
24.69500 838.000
24.71000 872.000
24.72500 892.000
24.74000 884.000
24.75500 831.000
24.77000 818.000
24.78500 761.000
24.80000 740.000
24.81500 681.000
24.83000 618.000
24.84500 578.000
24.86000 592.000
24.87500 613.000
24.89000 593.000
24.90500 622.000
24.92000 615.000
24.93500 552.000
24.95000 547.000
24.96500 544.000
24.98000 477.000
24.99500 482.000
25.01000 518.000
25.02500 460.000
25.04000 482.000
25.05500 496.000
25.07000 511.000
25.08500 510.000
25.10000 547.000
25.11500 587.000
25.13000 577.000
25.14500 587.000
25.16000 639.000
25.17500 656.000
25.19000 723.000
25.20500 810.000
25.22000 893.000
25.23500 1025.000
25.25000 1144.000
25.26500 1330.000
25.28000 1474.000
25.29500 1671.000
25.31000 1861.000
25.32500 2008.000
25.34000 2034.000
25.35500 2023.000
25.37000 1851.000
25.38500 1664.000
25.40000 1524.000
25.41500 1470.000
25.43000 1397.000
25.44500 1369.000
25.46000 1378.000
25.47500 1278.000
25.49000 1191.000
25.50500 1081.000
25.52000 944.000
25.53500 909.000
25.55000 874.000
25.56500 808.000
25.58000 821.000
25.59500 795.000
25.61000 807.000
25.62500 915.000
25.64000 930.000
25.65500 1003.000
25.67000 1206.000
25.68500 1242.000
25.70000 1388.000
25.71500 1593.000
25.73000 1860.000
25.74500 2037.000
25.76000 2111.000
25.77500 2094.000
25.79000 2029.000
25.80500 1870.000
25.82000 1654.000
25.83500 1446.000
25.85000 1374.000
25.86500 1228.000
25.88000 1220.000
25.89500 1196.000
25.91000 1118.000
25.92500 1173.000
25.94000 1136.000
25.95500 1042.000
25.97000 993.000
25.98500 898.000
26.00000 763.000
26.01500 721.000
26.03000 681.000
26.04500 598.000
26.06000 600.000
26.07500 592.000
26.09000 595.000
26.10500 601.000
26.12000 603.000
26.13500 646.000
26.15000 658.000
26.16500 652.000
26.18000 691.000
26.19500 684.000
26.21000 680.000
26.22500 670.000
26.24000 665.000
26.25500 705.000
26.27000 713.000
26.28500 740.000
26.30000 778.000
26.31500 839.000
26.33000 882.000
26.34500 827.000
26.36000 811.000
26.37500 719.000
26.39000 675.000
26.40500 606.000
26.42000 582.000
26.43500 530.000
26.45000 487.000
26.46500 509.000
26.48000 464.000
26.49500 475.000
26.51000 521.000
26.52500 510.000
26.54000 517.000
26.55500 480.000
26.57000 506.000
26.58500 512.000
26.60000 510.000
26.61500 531.000
26.63000 586.000
26.64500 568.000
26.66000 561.000
26.67500 644.000
26.69000 720.000
26.70500 733.000
26.72000 769.000
26.73500 832.000
26.75000 880.000
26.76500 913.000
26.78000 991.000
26.79500 1045.000
26.81000 1061.000
26.82500 1095.000
26.84000 1100.000
26.85500 1059.000
26.87000 1064.000
26.88500 1063.000
26.90000 1055.000
26.91500 1014.000
26.93000 1014.000
26.94500 994.000
26.96000 952.000
26.97500 963.000
26.99000 984.000
27.00500 960.000
27.02000 925.000
27.03500 938.000
27.05000 946.000
27.06500 935.000
27.08000 953.000
27.09500 918.000
27.11000 1018.000
27.12500 1144.000
27.14000 1203.000
27.15500 1321.000
27.17000 1406.000
27.18500 1427.000
27.20000 1441.000
27.21500 1459.000
27.23000 1332.000
27.24500 1153.000
27.26000 1079.000
27.27500 964.000
27.29000 885.000
27.30500 861.000
27.32000 801.000
27.33500 743.000
27.35000 720.000
27.36500 676.000
27.38000 638.000
27.39500 600.000
27.41000 585.000
27.42500 586.000
27.44000 572.000
27.45500 546.000
27.47000 567.000
27.48500 558.000
27.50000 579.000
27.51500 606.000
27.53000 651.000
27.54500 738.000
27.56000 805.000
27.57500 814.000
27.59000 915.000
27.60500 1024.000
27.62000 1168.000
27.63500 1190.000
27.65000 1276.000
27.66500 1463.000
27.68000 1590.000
27.69500 1661.000
27.71000 1715.000
27.72500 1697.000
27.74000 1571.000
27.75500 1480.000
27.77000 1349.000
27.78500 1217.000
27.80000 1116.000
27.81500 1039.000
27.83000 926.000
27.84500 796.000
27.86000 747.000
27.87500 689.000
27.89000 631.000
27.90500 574.000
27.92000 553.000
27.93500 544.000
27.95000 517.000
27.96500 503.000
27.98000 484.000
27.99500 477.000
28.01000 454.000
28.02500 461.000
28.04000 460.000
28.05500 468.000
28.07000 496.000
28.08500 480.000
28.10000 460.000
28.11500 451.000
28.13000 479.000
28.14500 506.000
28.16000 504.000
28.17500 491.000
28.19000 522.000
28.20500 612.000
28.22000 601.000
28.23500 587.000
28.25000 575.000
28.26500 624.000
28.28000 639.000
28.29500 696.000
28.31000 756.000
28.32500 796.000
28.34000 846.000
28.35500 872.000
28.37000 943.000
28.38500 988.000
28.40000 1111.000
28.41500 1181.000
28.43000 1240.000
28.44500 1254.000
28.46000 1197.000
28.47500 1199.000
28.49000 1148.000
28.50500 1068.000
28.52000 1018.000
28.53500 943.000
28.55000 887.000
28.56500 903.000
28.58000 871.000
28.59500 870.000
28.61000 946.000
28.62500 998.000
28.64000 1060.000
28.65500 1178.000
28.67000 1299.000
28.68500 1531.000
28.70000 1639.000
28.71500 1825.000
28.73000 1876.000
28.74500 1865.000
28.76000 1884.000
28.77500 1795.000
28.79000 1598.000
28.80500 1584.000
28.82000 1370.000
28.83500 1272.000
28.85000 1164.000
28.86500 1073.000
28.88000 1063.000
28.89500 1035.000
28.91000 1011.000
28.92500 1026.000
28.94000 1076.000
28.95500 1187.000
28.97000 1183.000
28.98500 1286.000
29.00000 1398.000
29.01500 1484.000
29.03000 1651.000
29.04500 1747.000
29.06000 1796.000
29.07500 1906.000
29.09000 2129.000
29.10500 2077.000
29.12000 2146.000
29.13500 2066.000
29.15000 1878.000
29.16500 1584.000
29.18000 1360.000
29.19500 1126.000
29.21000 1010.000
29.22500 874.000
29.24000 802.000
29.25500 655.000
29.27000 602.000
29.28500 582.000
29.30000 577.000
29.31500 567.000
29.33000 523.000
29.34500 533.000
29.36000 557.000
29.37500 560.000
29.39000 548.000
29.40500 573.000
29.42000 593.000
29.43500 656.000
29.45000 655.000
29.46500 717.000
29.48000 827.000
29.49500 891.000
29.51000 951.000
29.52500 1047.000
29.54000 1056.000
29.55500 1079.000
29.57000 1139.000
29.58500 1200.000
29.60000 1211.000
29.61500 1290.000
29.63000 1327.000
29.64500 1376.000
29.66000 1244.000
29.67500 1163.000
29.69000 1114.000
29.70500 1060.000
29.72000 1025.000
29.73500 927.000
29.75000 885.000
29.76500 795.000
29.78000 702.000
29.79500 632.000
29.81000 589.000
29.82500 536.000
29.84000 533.000
29.85500 526.000
29.87000 568.000
29.88500 583.000
29.90000 574.000
29.91500 594.000
29.93000 608.000
29.94500 598.000
29.96000 624.000
29.97500 585.000
29.99000 541.000
30.00500 531.000
30.02000 534.000
30.03500 569.000
30.05000 572.000
30.06500 534.000
30.08000 542.000
30.09500 557.000
30.11000 590.000
30.12500 607.000
30.14000 662.000
30.15500 697.000
30.17000 790.000
30.18500 797.000
30.20000 828.000
30.21500 900.000
30.23000 1010.000
30.24500 1168.000
30.26000 1267.000
30.27500 1281.000
30.29000 1339.000
30.30500 1296.000
30.32000 1297.000
30.33500 1246.000
30.35000 1161.000
30.36500 1156.000
30.38000 1073.000
30.39500 963.000
30.41000 901.000
30.42500 766.000
30.44000 696.000
30.45500 677.000
30.47000 638.000
30.48500 582.000
30.50000 557.000
30.51500 527.000
30.53000 487.000
30.54500 507.000
30.56000 528.000
30.57500 543.000
30.59000 529.000
30.60500 565.000
30.62000 564.000
30.63500 574.000
30.65000 619.000
30.66500 646.000
30.68000 641.000
30.69500 651.000
30.71000 659.000
30.72500 608.000
30.74000 586.000
30.75500 630.000
30.77000 557.000
30.78500 602.000
30.80000 524.000
30.81500 518.000
30.83000 546.000
30.84500 483.000
30.86000 496.000
30.87500 508.000
30.89000 475.000
30.90500 479.000
30.92000 448.000
30.93500 454.000
30.95000 457.000
30.96500 411.000
30.98000 421.000
30.99500 482.000
31.01000 507.000
31.02500 521.000
31.04000 537.000
31.05500 564.000
31.07000 563.000
31.08500 627.000
31.10000 669.000
31.11500 675.000
31.13000 701.000
31.14500 741.000
31.16000 790.000
31.17500 848.000
31.19000 900.000
31.20500 941.000
31.22000 996.000
31.23500 1074.000
31.25000 1063.000
31.26500 991.000
31.28000 962.000
31.29500 888.000
31.31000 891.000
31.32500 842.000
31.34000 800.000
31.35500 782.000
31.37000 738.000
31.38500 711.000
31.40000 691.000
31.41500 702.000
31.43000 703.000
31.44500 648.000
31.46000 648.000
31.47500 633.000
31.49000 624.000
31.50500 587.000
31.52000 597.000
31.53500 617.000
31.55000 562.000
31.56500 537.000
31.58000 543.000
31.59500 527.000
31.61000 508.000
31.62500 499.000
31.64000 493.000
31.65500 493.000
31.67000 485.000
31.68500 461.000
31.70000 464.000
31.71500 505.000
31.73000 488.000
31.74500 511.000
31.76000 501.000
31.77500 510.000
31.79000 501.000
31.80500 493.000
31.82000 455.000
31.83500 442.000
31.85000 399.000
31.86500 389.000
31.88000 420.000
31.89500 411.000
31.91000 379.000
31.92500 383.000
31.94000 405.000
31.95500 423.000
31.97000 440.000
31.98500 432.000
32.00000 471.000
32.01500 495.000
32.03000 492.000
32.04500 513.000
32.06000 536.000
32.07500 546.000
32.09000 538.000
32.10500 541.000
32.12000 492.000
32.13500 458.000
32.15000 427.000
32.16500 432.000
32.18000 392.000
32.19500 391.000
32.21000 398.000
32.22500 388.000
32.24000 424.000
32.25500 425.000
32.27000 424.000
32.28500 431.000
32.30000 388.000
32.31500 400.000
32.33000 380.000
32.34500 375.000
32.36000 390.000
32.37500 371.000
32.39000 400.000
32.40500 370.000
32.42000 382.000
32.43500 384.000
32.45000 377.000
32.46500 356.000
32.48000 374.000
32.49500 392.000
32.51000 404.000
32.52500 371.000
32.54000 407.000
32.55500 371.000
32.57000 403.000
32.58500 423.000
32.60000 396.000
32.61500 364.000
32.63000 400.000
32.64500 459.000
32.66000 486.000
32.67500 489.000
32.69000 495.000
32.70500 530.000
32.72000 542.000
32.73500 608.000
32.75000 666.000
32.76500 695.000
32.78000 761.000
32.79500 810.000
32.81000 828.000
32.82500 897.000
32.84000 939.000
32.85500 984.000
32.87000 974.000
32.88500 997.000
32.90000 1047.000
32.91500 1004.000
32.93000 1025.000
32.94500 985.000
32.96000 1108.000
32.97500 1155.000
32.99000 1129.000
33.00500 1154.000
33.02000 1186.000
33.03500 1135.000
33.05000 1148.000
33.06500 1126.000
33.08000 1259.000
33.09500 1299.000
33.11000 1304.000
33.12500 1380.000
33.14000 1411.000
33.15500 1274.000
33.17000 1222.000
33.18500 1231.000
33.20000 1190.000
33.21500 1124.000
33.23000 1132.000
33.24500 1089.000
33.26000 1107.000
33.27500 1066.000
33.29000 1094.000
33.30500 1029.000
33.32000 1014.000
33.33500 1045.000
33.35000 930.000
33.36500 921.000
33.38000 974.000
33.39500 984.000
33.41000 973.000
33.42500 967.000
33.44000 958.000
33.45500 906.000
33.47000 867.000
33.48500 837.000
33.50000 839.000
33.51500 813.000
33.53000 821.000
33.54500 782.000
33.56000 704.000
33.57500 754.000
33.59000 774.000
33.60500 726.000
33.62000 757.000
33.63500 757.000
33.65000 772.000
33.66500 869.000
33.68000 931.000
33.69500 966.000
33.71000 1043.000
33.72500 1058.000
33.74000 1152.000
33.75500 1250.000
33.77000 1261.000
33.78500 1200.000
33.80000 1131.000
33.81500 1078.000
33.83000 1043.000
33.84500 908.000
33.86000 824.000
33.87500 745.000
33.89000 692.000
33.90500 645.000
33.92000 645.000
33.93500 601.000
33.95000 617.000
33.96500 661.000
33.98000 666.000
33.99500 670.000
34.01000 728.000
34.02500 783.000
34.04000 836.000
34.05500 916.000
34.07000 1087.000
34.08500 1129.000
34.10000 1217.000
34.11500 1384.000
34.13000 1523.000
34.14500 1601.000
34.16000 1650.000
34.17500 1682.000
34.19000 1740.000
34.20500 1806.000
34.22000 1911.000
34.23500 2042.000
34.25000 2096.000
34.26500 2164.000
34.28000 2240.000
34.29500 2267.000
34.31000 2279.000
34.32500 2126.000
34.34000 2001.000
34.35500 1744.000
34.37000 1530.000
34.38500 1336.000
34.40000 1189.000
34.41500 1093.000
34.43000 962.000
34.44500 952.000
34.46000 930.000
34.47500 858.000
34.49000 830.000
34.50500 809.000
34.52000 792.000
34.53500 773.000
34.55000 773.000
34.56500 735.000
34.58000 770.000
34.59500 792.000
34.61000 808.000
34.62500 845.000
34.64000 925.000
34.65500 968.000
34.67000 985.000
34.68500 1056.000
34.70000 1077.000
34.71500 1039.000
34.73000 1096.000
34.74500 1057.000
34.76000 1105.000
34.77500 1119.000
34.79000 1093.000
34.80500 1023.000
34.82000 995.000
34.83500 934.000
34.85000 792.000
34.86500 724.000
34.88000 677.000
34.89500 642.000
34.91000 607.000
34.92500 573.000
34.94000 559.000
34.95500 531.000
34.97000 562.000
34.98500 550.000
35.00000 560.000
35.01500 529.000
35.03000 511.000
35.04500 476.000
35.06000 446.000
35.07500 427.000
35.09000 478.000
35.10500 410.000
35.12000 409.000
35.13500 444.000
35.15000 425.000
35.16500 445.000
35.18000 461.000
35.19500 448.000
35.21000 511.000
35.22500 564.000
35.24000 515.000
35.25500 576.000
35.27000 646.000
35.28500 650.000
35.30000 727.000
35.31500 734.000
35.33000 702.000
35.34500 695.000
35.36000 617.000
35.37500 573.000
35.39000 534.000
35.40500 499.000
35.42000 473.000
35.43500 441.000
35.45000 407.000
35.46500 451.000
35.48000 434.000
35.49500 455.000
35.51000 472.000
35.52500 482.000
35.54000 489.000
35.55500 496.000
35.57000 512.000
35.58500 521.000
35.60000 546.000
35.61500 558.000
35.63000 578.000
35.64500 603.000
35.66000 589.000
35.67500 584.000
35.69000 637.000
35.70500 679.000
35.72000 745.000
35.73500 775.000
35.75000 794.000
35.76500 810.000
35.78000 872.000
35.79500 826.000
35.81000 836.000
35.82500 806.000
35.84000 814.000
35.85500 785.000
35.87000 818.000
35.88500 843.000
35.90000 844.000
35.91500 829.000
35.93000 808.000
35.94500 839.000
35.96000 801.000
35.97500 721.000
35.99000 648.000
36.00500 656.000
36.02000 596.000
36.03500 556.000
36.05000 525.000
36.06500 487.000
36.08000 482.000
36.09500 457.000
36.11000 471.000
36.12500 440.000
36.14000 453.000
36.15500 440.000
36.17000 435.000
36.18500 433.000
36.20000 454.000
36.21500 503.000
36.23000 525.000
36.24500 504.000
36.26000 533.000
36.27500 551.000
36.29000 578.000
36.30500 605.000
36.32000 604.000
36.33500 609.000
36.35000 627.000
36.36500 623.000
36.38000 617.000
36.39500 578.000
36.41000 555.000
36.42500 502.000
36.44000 533.000
36.45500 520.000
36.47000 493.000
36.48500 478.000
36.50000 468.000
36.51500 426.000
36.53000 424.000
36.54500 420.000
36.56000 405.000
36.57500 404.000
36.59000 412.000
36.60500 412.000
36.62000 428.000
36.63500 445.000
36.65000 446.000
36.66500 473.000
36.68000 497.000
36.69500 526.000
36.71000 482.000
36.72500 471.000
36.74000 459.000
36.75500 447.000
36.77000 422.000
36.78500 400.000
36.80000 443.000
36.81500 433.000
36.83000 463.000
36.84500 456.000
36.86000 503.000
36.87500 520.000
36.89000 571.000
36.90500 588.000
36.92000 643.000
36.93500 661.000
36.95000 751.000
36.96500 843.000
36.98000 914.000
36.99500 915.000
37.01000 954.000
37.02500 975.000
37.04000 943.000
37.05500 969.000
37.07000 950.000
37.08500 879.000
37.10000 823.000
37.11500 778.000
37.13000 702.000
37.14500 676.000
37.16000 624.000
37.17500 593.000
37.19000 574.000
37.20500 546.000
37.22000 539.000
37.23500 556.000
37.25000 510.000
37.26500 593.000
37.28000 631.000
37.29500 655.000
37.31000 677.000
37.32500 686.000
37.34000 666.000
37.35500 660.000
37.37000 599.000
37.38500 590.000
37.40000 594.000
37.41500 604.000
37.43000 568.000
37.44500 554.000
37.46000 600.000
37.47500 629.000
37.49000 668.000
37.50500 663.000
37.52000 677.000
37.53500 658.000
37.55000 584.000
37.56500 552.000
37.58000 523.000
37.59500 486.000
37.61000 467.000
37.62500 484.000
37.64000 464.000
37.65500 456.000
37.67000 428.000
37.68500 428.000
37.70000 422.000
37.71500 414.000
37.73000 403.000
37.74500 418.000
37.76000 421.000
37.77500 446.000
37.79000 459.000
37.80500 470.000
37.82000 520.000
37.83500 520.000
37.85000 562.000
37.86500 595.000
37.88000 655.000
37.89500 717.000
37.91000 782.000
37.92500 829.000
37.94000 864.000
37.95500 885.000
37.97000 912.000
37.98500 897.000
38.00000 875.000
38.01500 909.000
38.03000 905.000
38.04500 850.000
38.06000 760.000
38.07500 673.000
38.09000 671.000
38.10500 588.000
38.12000 585.000
38.13500 563.000
38.15000 546.000
38.16500 583.000
38.18000 627.000
38.19500 627.000
38.21000 617.000
38.22500 668.000
38.24000 693.000
38.25500 698.000
38.27000 685.000
38.28500 651.000
38.30000 647.000
38.31500 678.000
38.33000 636.000
38.34500 595.000
38.36000 560.000
38.37500 576.000
38.39000 532.000
38.40500 540.000
38.42000 575.000
38.43500 592.000
38.45000 582.000
38.46500 679.000
38.48000 746.000
38.49500 745.000
38.51000 772.000
38.52500 822.000
38.54000 798.000
38.55500 770.000
38.57000 773.000
38.58500 745.000
38.60000 680.000
38.61500 657.000
38.63000 635.000
38.64500 564.000
38.66000 571.000
38.67500 565.000
38.69000 551.000
38.70500 611.000
38.72000 616.000
38.73500 617.000
38.75000 652.000
38.76500 649.000
38.78000 702.000
38.79500 707.000
38.81000 683.000
38.82500 678.000
38.84000 664.000
38.85500 664.000
38.87000 644.000
38.88500 658.000
38.90000 700.000
38.91500 670.000
38.93000 721.000
38.94500 776.000
38.96000 795.000
38.97500 798.000
38.99000 795.000
39.00500 706.000
39.02000 650.000
39.03500 616.000
39.05000 523.000
39.06500 496.000
39.08000 465.000
39.09500 449.000
39.11000 430.000
39.12500 390.000
39.14000 383.000
39.15500 404.000
39.17000 404.000
39.18500 412.000
39.20000 423.000
39.21500 418.000
39.23000 413.000
39.24500 407.000
39.26000 376.000
39.27500 382.000
39.29000 349.000
39.30500 402.000
39.32000 372.000
39.33500 401.000
39.35000 430.000
39.36500 419.000
39.38000 447.000
39.39500 499.000
39.41000 544.000
39.42500 525.000
39.44000 519.000
39.45500 549.000
39.47000 545.000
39.48500 567.000
39.50000 519.000
39.51500 534.000
39.53000 566.000
39.54500 546.000
39.56000 572.000
39.57500 580.000
39.59000 563.000
39.60500 579.000
39.62000 506.000
39.63500 506.000
39.65000 474.000
39.66500 449.000
39.68000 428.000
39.69500 377.000
39.71000 372.000
39.72500 369.000
39.74000 371.000
39.75500 386.000
39.77000 388.000
39.78500 367.000
39.80000 392.000
39.81500 375.000
39.83000 390.000
39.84500 391.000
39.86000 405.000
39.87500 437.000
39.89000 455.000
39.90500 507.000
39.92000 520.000
39.93500 563.000
39.95000 568.000
39.96500 601.000
39.98000 627.000
39.99500 626.000
40.01000 625.000
40.02500 633.000
40.04000 595.000
40.05500 566.000
40.07000 508.000
40.08500 489.000
40.10000 519.000
40.11500 495.000
40.13000 466.000
40.14500 465.000
40.16000 453.000
40.17500 479.000
40.19000 488.000
40.20500 484.000
40.22000 475.000
40.23500 458.000
40.25000 461.000
40.26500 440.000
40.28000 462.000
40.29500 454.000
40.31000 435.000
40.32500 482.000
40.34000 442.000
40.35500 430.000
40.37000 430.000
40.38500 412.000
40.40000 406.000
40.41500 410.000
40.43000 434.000
40.44500 446.000
40.46000 468.000
40.47500 481.000
40.49000 513.000
40.50500 522.000
40.52000 603.000
40.53500 642.000
40.55000 662.000
40.56500 681.000
40.58000 642.000
40.59500 646.000
40.61000 603.000
40.62500 605.000
40.64000 581.000
40.65500 610.000
40.67000 552.000
40.68500 571.000
40.70000 595.000
40.71500 574.000
40.73000 501.000
40.74500 459.000
40.76000 424.000
40.77500 435.000
40.79000 407.000
40.80500 369.000
40.82000 392.000
40.83500 376.000
40.85000 382.000
40.86500 390.000
40.88000 429.000
40.89500 416.000
40.91000 397.000
40.92500 370.000
40.94000 355.000
40.95500 354.000
40.97000 393.000
40.98500 404.000
41.00000 387.000
41.01500 400.000
41.03000 406.000
41.04500 368.000
41.06000 390.000
41.07500 408.000
41.09000 402.000
41.10500 403.000
41.12000 438.000
41.13500 457.000
41.15000 496.000
41.16500 523.000
41.18000 552.000
41.19500 600.000
41.21000 656.000
41.22500 633.000
41.24000 652.000
41.25500 681.000
41.27000 714.000
41.28500 764.000
41.30000 808.000
41.31500 772.000
41.33000 778.000
41.34500 801.000
41.36000 708.000
41.37500 651.000
41.39000 543.000
41.40500 491.000
41.42000 471.000
41.43500 440.000
41.45000 416.000
41.46500 413.000
41.48000 403.000
41.49500 393.000
41.51000 392.000
41.52500 406.000
41.54000 395.000
41.55500 376.000
41.57000 413.000
41.58500 457.000
41.60000 477.000
41.61500 540.000
41.63000 538.000
41.64500 573.000
41.66000 607.000
41.67500 586.000
41.69000 609.000
41.70500 631.000
41.72000 615.000
41.73500 623.000
41.75000 607.000
41.76500 636.000
41.78000 605.000
41.79500 669.000
41.81000 687.000
41.82500 622.000
41.84000 580.000
41.85500 587.000
41.87000 529.000
41.88500 521.000
41.90000 496.000
41.91500 423.000
41.93000 386.000
41.94500 421.000
41.96000 422.000
41.97500 407.000
41.99000 419.000
42.00500 436.000
42.02000 488.000
42.03500 512.000
42.05000 532.000
42.06500 567.000
42.08000 649.000
42.09500 741.000
42.11000 773.000
42.12500 807.000
42.14000 865.000
42.15500 835.000
42.17000 778.000
42.18500 744.000
42.20000 675.000
42.21500 675.000
42.23000 601.000
42.24500 550.000
42.26000 506.000
42.27500 464.000
42.29000 454.000
42.30500 418.000
42.32000 413.000
42.33500 409.000
42.35000 468.000
42.36500 431.000
42.38000 403.000
42.39500 429.000
42.41000 465.000
42.42500 466.000
42.44000 523.000
42.45500 529.000
42.47000 603.000
42.48500 619.000
42.50000 688.000
42.51500 730.000
42.53000 739.000
42.54500 753.000
42.56000 772.000
42.57500 781.000
42.59000 782.000
42.60500 731.000
42.62000 708.000
42.63500 746.000
42.65000 658.000
42.66500 607.000
42.68000 601.000
42.69500 566.000
42.71000 571.000
42.72500 558.000
42.74000 541.000
42.75500 522.000
42.77000 593.000
42.78500 578.000
42.80000 606.000
42.81500 612.000
42.83000 654.000
42.84500 686.000
42.86000 686.000
42.87500 687.000
42.89000 701.000
42.90500 741.000
42.92000 735.000
42.93500 760.000
42.95000 754.000
42.96500 784.000
42.98000 758.000
42.99500 732.000
43.01000 722.000
43.02500 697.000
43.04000 675.000
43.05500 669.000
43.07000 677.000
43.08500 715.000
43.10000 725.000
43.11500 733.000
43.13000 748.000
43.14500 753.000
43.16000 754.000
43.17500 757.000
43.19000 770.000
43.20500 783.000
43.22000 730.000
43.23500 730.000
43.25000 760.000
43.26500 711.000
43.28000 693.000
43.29500 660.000
43.31000 610.000
43.32500 610.000
43.34000 609.000
43.35500 591.000
43.37000 550.000
43.38500 529.000
43.40000 536.000
43.41500 511.000
43.43000 516.000
43.44500 508.000
43.46000 530.000
43.47500 552.000
43.49000 550.000
43.50500 629.000
43.52000 693.000
43.53500 653.000
43.55000 670.000
43.56500 629.000
43.58000 610.000
43.59500 585.000
43.61000 574.000
43.62500 599.000
43.64000 594.000
43.65500 555.000
43.67000 552.000
43.68500 554.000
43.70000 528.000
43.71500 476.000
43.73000 509.000
43.74500 509.000
43.76000 513.000
43.77500 528.000
43.79000 524.000
43.80500 523.000
43.82000 519.000
43.83500 496.000
43.85000 443.000
43.86500 417.000
43.88000 414.000
43.89500 405.000
43.91000 401.000
43.92500 386.000
43.94000 397.000
43.95500 389.000
43.97000 425.000
43.98500 426.000
44.00000 386.000
44.01500 382.000
44.03000 430.000
44.04500 478.000
44.06000 474.000
44.07500 468.000
44.09000 485.000
44.10500 502.000
44.12000 536.000
44.13500 539.000
44.15000 550.000
44.16500 533.000
44.18000 477.000
44.19500 497.000
44.21000 485.000
44.22500 440.000
44.24000 433.000
44.25500 414.000
44.27000 417.000
44.28500 415.000
44.30000 400.000
44.31500 416.000
44.33000 410.000
44.34500 418.000
44.36000 401.000
44.37500 395.000
44.39000 388.000
44.40500 403.000
44.42000 352.000
44.43500 402.000
44.45000 391.000
44.46500 383.000
44.48000 392.000
44.49500 425.000
44.51000 492.000
44.52500 524.000
44.54000 551.000
44.55500 597.000
44.57000 614.000
44.58500 630.000
44.60000 622.000
44.61500 680.000
44.63000 633.000
44.64500 576.000
44.66000 543.000
44.67500 529.000
44.69000 440.000
44.70500 419.000
44.72000 395.000
44.73500 391.000
44.75000 377.000
44.76500 381.000
44.78000 379.000
44.79500 354.000
44.81000 366.000
44.82500 367.000
44.84000 392.000
44.85500 402.000
44.87000 392.000
44.88500 413.000
44.90000 413.000
44.91500 356.000
44.93000 362.000
44.94500 355.000
44.96000 366.000
44.97500 333.000
44.99000 342.000
