5.00000 1066.000
5.01500 1024.000
5.03000 1044.000
5.04500 1113.000
5.06000 1102.000
5.07500 1081.000
5.09000 1110.000
5.10500 1110.000
5.12000 1054.000
5.13500 1055.000
5.15000 1076.000
5.16500 1076.000
5.18000 1123.000
5.19500 1092.000
5.21000 1084.000
5.22500 1054.000
5.24000 1064.000
5.25500 1084.000
5.27000 1089.000
5.28500 1103.000
5.30000 1091.000
5.31500 1080.000
5.33000 1025.000
5.34500 1072.000
5.36000 1037.000
5.37500 1056.000
5.39000 1032.000
5.40500 1018.000
5.42000 1072.000
5.43500 1092.000
5.45000 1081.000
5.46500 1080.000
5.48000 1066.000
5.49500 1091.000
5.51000 1090.000
5.52500 1076.000
5.54000 1038.000
5.55500 1015.000
5.57000 1084.000
5.58500 1022.000
5.60000 1019.000
5.61500 1074.000
5.63000 1023.000
5.64500 1078.000
5.66000 1086.000
5.67500 1071.000
5.69000 1085.000
5.70500 1035.000
5.72000 1049.000
5.73500 1033.000
5.75000 1030.000
5.76500 1040.000
5.78000 1053.000
5.79500 1049.000
5.81000 1088.000
5.82500 1063.000
5.84000 1045.000
5.85500 1031.000
5.87000 1087.000
5.88500 1078.000
5.90000 1110.000
5.91500 1142.000
5.93000 1068.000
5.94500 1078.000
5.96000 1090.000
5.97500 1075.000
5.99000 1073.000
6.00500 1031.000
6.02000 1065.000
6.03500 1053.000
6.05000 1040.000
6.06500 1044.000
6.08000 1053.000
6.09500 1046.000
6.11000 996.000
6.12500 1061.000
6.14000 1071.000
6.15500 1103.000
6.17000 1102.000
6.18500 1025.000
6.20000 1050.000
6.21500 1023.000
6.23000 1053.000
6.24500 1074.000
6.26000 1048.000
6.27500 1060.000
6.29000 1035.000
6.30500 964.000
6.32000 994.000
6.33500 1005.000
6.35000 1058.000
6.36500 1064.000
6.38000 1077.000
6.39500 1053.000
6.41000 1036.000
6.42500 1039.000
6.44000 1052.000
6.45500 1063.000
6.47000 1043.000
6.48500 1079.000
6.50000 1024.000
6.51500 1011.000
6.53000 995.000
6.54500 1019.000
6.56000 1010.000
6.57500 1024.000
6.59000 1034.000
6.60500 1023.000
6.62000 1021.000
6.63500 966.000
6.65000 959.000
6.66500 937.000
6.68000 919.000
6.69500 978.000
6.71000 948.000
6.72500 950.000
6.74000 932.000
6.75500 941.000
6.77000 936.000
6.78500 941.000
6.80000 934.000
6.81500 929.000
6.83000 974.000
6.84500 941.000
6.86000 910.000
6.87500 924.000
6.89000 910.000
6.90500 896.000
6.92000 970.000
6.93500 930.000
6.95000 913.000
6.96500 888.000
6.98000 947.000
6.99500 935.000
7.01000 892.000
7.02500 921.000
7.04000 938.000
7.05500 924.000
7.07000 916.000
7.08500 941.000
7.10000 891.000
7.11500 897.000
7.13000 945.000
7.14500 935.000
7.16000 924.000
7.17500 913.000
7.19000 937.000
7.20500 928.000
7.22000 893.000
7.23500 953.000
7.25000 959.000
7.26500 936.000
7.28000 915.000
7.29500 948.000
7.31000 933.000
7.32500 956.000
7.34000 902.000
7.35500 910.000
7.37000 926.000
7.38500 911.000
7.40000 926.000
7.41500 928.000
7.43000 913.000
7.44500 952.000
7.46000 873.000
7.47500 888.000
7.49000 952.000
7.50500 898.000
7.52000 826.000
7.53500 850.000
7.55000 871.000
7.56500 870.000
7.58000 852.000
7.59500 875.000
7.61000 897.000
7.62500 881.000
7.64000 861.000
7.65500 889.000
7.67000 887.000
7.68500 839.000
7.70000 901.000
7.71500 952.000
7.73000 872.000
7.74500 875.000
7.76000 831.000
7.77500 875.000
7.79000 885.000
7.80500 843.000
7.82000 864.000
7.83500 880.000
7.85000 866.000
7.86500 837.000
7.88000 850.000
7.89500 859.000
7.91000 834.000
7.92500 883.000
7.94000 837.000
7.95500 836.000
7.97000 868.000
7.98500 849.000
8.00000 847.000
8.01500 849.000
8.03000 884.000
8.04500 823.000
8.06000 820.000
8.07500 865.000
8.09000 882.000
8.10500 866.000
8.12000 812.000
8.13500 838.000
8.15000 855.000
8.16500 839.000
8.18000 818.000
8.19500 829.000
8.21000 833.000
8.22500 848.000
8.24000 826.000
8.25500 806.000
8.27000 819.000
8.28500 852.000
8.30000 825.000
8.31500 794.000
8.33000 777.000
8.34500 805.000
8.36000 806.000
8.37500 823.000
8.39000 756.000
8.40500 776.000
8.42000 810.000
8.43500 779.000
8.45000 778.000
8.46500 797.000
8.48000 829.000
8.49500 822.000
8.51000 813.000
8.52500 826.000
8.54000 799.000
8.55500 770.000
8.57000 774.000
8.58500 807.000
8.60000 798.000
8.61500 775.000
8.63000 793.000
8.64500 749.000
8.66000 764.000
8.67500 782.000
8.69000 770.000
8.70500 781.000
8.72000 735.000
8.73500 803.000
8.75000 784.000
8.76500 785.000
8.78000 781.000
8.79500 789.000
8.81000 763.000
8.82500 791.000
8.84000 815.000
8.85500 790.000
8.87000 739.000
8.88500 771.000
8.90000 767.000
8.91500 768.000
8.93000 760.000
8.94500 801.000
8.96000 754.000
8.97500 789.000
8.99000 801.000
9.00500 801.000
9.02000 733.000
9.03500 746.000
9.05000 761.000
9.06500 805.000
9.08000 800.000
9.09500 785.000
9.11000 769.000
9.12500 750.000
9.14000 783.000
9.15500 801.000
9.17000 838.000
9.18500 828.000
9.20000 846.000
9.21500 849.000
9.23000 844.000
9.24500 861.000
9.26000 829.000
9.27500 826.000
9.29000 805.000
9.30500 799.000
9.32000 765.000
9.33500 775.000
9.35000 769.000
9.36500 729.000
9.38000 705.000
9.39500 737.000
9.41000 754.000
9.42500 734.000
9.44000 687.000
9.45500 715.000
9.47000 751.000
9.48500 745.000
9.50000 762.000
9.51500 759.000
9.53000 784.000
9.54500 731.000
9.56000 738.000
9.57500 724.000
9.59000 704.000
9.60500 732.000
9.62000 763.000
9.63500 713.000
9.65000 744.000
9.66500 777.000
9.68000 774.000
9.69500 768.000
9.71000 760.000
9.72500 750.000
9.74000 730.000
9.75500 692.000
9.77000 737.000
9.78500 765.000
9.80000 742.000
9.81500 706.000
9.83000 723.000
9.84500 677.000
9.86000 713.000
9.87500 735.000
9.89000 745.000
9.90500 722.000
9.92000 719.000
9.93500 710.000
9.95000 697.000
9.96500 706.000
9.98000 714.000
9.99500 722.000
10.01000 729.000
10.02500 741.000
10.04000 728.000
10.05500 786.000
10.07000 783.000
10.08500 794.000
10.10000 774.000
10.11500 838.000
10.13000 781.000
10.14500 810.000
10.16000 810.000
10.17500 837.000
10.19000 854.000
10.20500 907.000
10.22000 895.000
10.23500 942.000
10.25000 1019.000
10.26500 1026.000
10.28000 1029.000
10.29500 1051.000
10.31000 1051.000
10.32500 990.000
10.34000 934.000
10.35500 928.000
10.37000 904.000
10.38500 841.000
10.40000 811.000
10.41500 779.000
10.43000 751.000
10.44500 698.000
10.46000 679.000
10.47500 680.000
10.49000 724.000
10.50500 708.000
10.52000 679.000
10.53500 719.000
10.55000 713.000
10.56500 685.000
10.58000 690.000
10.59500 691.000
10.61000 736.000
10.62500 672.000
10.64000 697.000
10.65500 724.000
10.67000 720.000
10.68500 672.000
10.70000 668.000
10.71500 678.000
10.73000 681.000
10.74500 685.000
10.76000 727.000
10.77500 759.000
10.79000 755.000
10.80500 776.000
10.82000 715.000
10.83500 712.000
10.85000 785.000
10.86500 800.000
10.88000 781.000
10.89500 825.000
10.91000 797.000
10.92500 843.000
10.94000 936.000
10.95500 921.000
10.97000 891.000
10.98500 897.000
11.00000 906.000
11.01500 833.000
11.03000 853.000
11.04500 816.000
11.06000 806.000
11.07500 802.000
11.09000 777.000
11.10500 757.000
11.12000 767.000
11.13500 839.000
11.15000 823.000
11.16500 873.000
11.18000 879.000
11.19500 893.000
11.21000 902.000
11.22500 929.000
11.24000 1002.000
11.25500 1046.000
11.27000 1074.000
11.28500 1153.000
11.30000 1201.000
11.31500 1249.000
11.33000 1296.000
11.34500 1367.000
11.36000 1385.000
11.37500 1363.000
11.39000 1252.000
11.40500 1185.000
11.42000 1135.000
11.43500 1073.000
11.45000 981.000
11.46500 899.000
11.48000 828.000
11.49500 810.000
11.51000 780.000
11.52500 722.000
11.54000 707.000
11.55500 736.000
11.57000 697.000
11.58500 664.000
11.60000 764.000
11.61500 735.000
11.63000 694.000
11.64500 706.000
11.66000 663.000
11.67500 667.000
11.69000 670.000
11.70500 681.000
11.72000 688.000
11.73500 715.000
11.75000 734.000
11.76500 721.000
11.78000 716.000
11.79500 735.000
11.81000 731.000
11.82500 726.000
11.84000 750.000
11.85500 796.000
11.87000 792.000
11.88500 799.000
11.90000 798.000
11.91500 781.000
11.93000 794.000
11.94500 845.000
11.96000 822.000
11.97500 815.000
11.99000 845.000
12.00500 866.000
12.02000 886.000
12.03500 934.000
12.05000 997.000
12.06500 986.000
12.08000 1012.000
12.09500 1105.000
12.11000 1136.000
12.12500 1220.000
12.14000 1302.000
12.15500 1462.000
12.17000 1591.000
12.18500 1755.000
12.20000 1891.000
12.21500 1969.000
12.23000 2166.000
12.24500 2302.000
12.26000 2380.000
12.27500 2273.000
12.29000 2228.000
12.30500 2133.000
12.32000 1927.000
12.33500 1666.000
12.35000 1488.000
12.36500 1300.000
12.38000 1163.000
12.39500 1037.000
12.41000 908.000
12.42500 896.000
12.44000 832.000
12.45500 828.000
12.47000 794.000
12.48500 741.000
12.50000 739.000
12.51500 740.000
12.53000 710.000
12.54500 705.000
12.56000 698.000
12.57500 694.000
12.59000 714.000
12.60500 706.000
12.62000 658.000
12.63500 655.000
12.65000 676.000
12.66500 684.000
12.68000 667.000
12.69500 640.000
12.71000 619.000
12.72500 689.000
12.74000 705.000
12.75500 672.000
12.77000 655.000
12.78500 676.000
12.80000 704.000
12.81500 675.000
12.83000 656.000
12.84500 699.000
12.86000 680.000
12.87500 737.000
12.89000 728.000
12.90500 750.000
12.92000 782.000
12.93500 831.000
12.95000 871.000
12.96500 893.000
12.98000 953.000
12.99500 978.000
13.01000 1057.000
13.02500 1102.000
13.04000 1088.000
13.05500 1211.000
13.07000 1140.000
13.08500 1104.000
13.10000 1115.000
13.11500 1015.000
13.13000 943.000
13.14500 932.000
13.16000 961.000
13.17500 985.000
13.19000 940.000
13.20500 870.000
13.22000 931.000
13.23500 1023.000
13.25000 1013.000
13.26500 1019.000
13.28000 1080.000
13.29500 1058.000
13.31000 1045.000
13.32500 1018.000
13.34000 1035.000
13.35500 1021.000
13.37000 1097.000
13.38500 1061.000
13.40000 1093.000
13.41500 1151.000
13.43000 1216.000
13.44500 1287.000
13.46000 1336.000
13.47500 1310.000
13.49000 1276.000
13.50500 1287.000
13.52000 1152.000
13.53500 1108.000
13.55000 1028.000
13.56500 963.000
13.58000 849.000
13.59500 821.000
13.61000 789.000
13.62500 745.000
13.64000 755.000
13.65500 713.000
13.67000 727.000
13.68500 701.000
13.70000 716.000
13.71500 726.000
13.73000 692.000
13.74500 707.000
13.76000 681.000
13.77500 699.000
13.79000 680.000
13.80500 697.000
13.82000 666.000
13.83500 695.000
13.85000 700.000
13.86500 709.000
13.88000 652.000
13.89500 712.000
13.91000 700.000
13.92500 689.000
13.94000 767.000
13.95500 732.000
13.97000 720.000
13.98500 790.000
14.00000 750.000
14.01500 764.000
14.03000 774.000
14.04500 790.000
14.06000 779.000
14.07500 777.000
14.09000 866.000
14.10500 870.000
14.12000 866.000
14.13500 916.000
14.15000 996.000
14.16500 965.000
14.18000 992.000
14.19500 1077.000
14.21000 1101.000
14.22500 1123.000
14.24000 1150.000
14.25500 1161.000
14.27000 1152.000
14.28500 1182.000
14.30000 1093.000
14.31500 1050.000
14.33000 967.000
14.34500 888.000
14.36000 877.000
14.37500 877.000
14.39000 895.000
14.40500 957.000
14.42000 936.000
14.43500 982.000
14.45000 989.000
14.46500 1019.000
14.48000 1083.000
14.49500 1149.000
14.51000 1187.000
14.52500 1258.000
14.54000 1368.000
14.55500 1538.000
14.57000 1614.000
14.58500 1776.000
14.60000 1873.000
14.61500 2039.000
14.63000 2199.000
14.64500 2214.000
14.66000 2212.000
14.67500 2237.000
14.69000 2208.000
14.70500 2047.000
14.72000 1878.000
14.73500 1768.000
14.75000 1630.000
14.76500 1641.000
14.78000 1600.000
14.79500 1629.000
14.81000 1631.000
14.82500 1659.000
14.84000 1813.000
14.85500 1816.000
14.87000 1974.000
14.88500 2135.000
14.90000 2294.000
14.91500 2511.000
14.93000 2710.000
14.94500 2932.000
14.96000 3185.000
14.97500 3295.000
14.99000 3258.000
15.00500 3272.000
15.02000 3123.000
15.03500 2735.000
15.05000 2422.000
15.06500 2049.000
15.08000 1671.000
15.09500 1476.000
15.11000 1261.000
15.12500 1219.000
15.14000 1058.000
15.15500 958.000
15.17000 882.000
15.18500 881.000
15.20000 879.000
15.21500 780.000
15.23000 777.000
15.24500 740.000
15.26000 748.000
15.27500 734.000
15.29000 739.000
15.30500 692.000
15.32000 683.000
15.33500 654.000
15.35000 701.000
15.36500 688.000
15.38000 632.000
15.39500 652.000
15.41000 627.000
15.42500 635.000
15.44000 653.000
15.45500 655.000
15.47000 629.000
15.48500 660.000
15.50000 649.000
15.51500 640.000
15.53000 624.000
15.54500 601.000
15.56000 611.000
15.57500 561.000
15.59000 588.000
15.60500 642.000
15.62000 639.000
15.63500 663.000
15.65000 676.000
15.66500 691.000
15.68000 651.000
15.69500 654.000
15.71000 636.000
15.72500 705.000
15.74000 681.000
15.75500 687.000
15.77000 688.000
15.78500 693.000
15.80000 686.000
15.81500 741.000
15.83000 681.000
15.84500 723.000
15.86000 780.000
15.87500 754.000
15.89000 821.000
15.90500 899.000
15.92000 883.000
15.93500 928.000
15.95000 1019.000
15.96500 1086.000
15.98000 1222.000
15.99500 1332.000
16.01000 1421.000
16.02500 1512.000
16.04000 1572.000
16.05500 1660.000
16.07000 1779.000
16.08500 1836.000
16.10000 1870.000
16.11500 1901.000
16.13000 1985.000
16.14500 2010.000
16.16000 2023.000
16.17500 2204.000
16.19000 2353.000
16.20500 2287.000
16.22000 2226.000
16.23500 2109.000
16.25000 1976.000
16.26500 1872.000
16.28000 1730.000
16.29500 1531.000
16.31000 1373.000
16.32500 1290.000
16.34000 1282.000
16.35500 1274.000
16.37000 1259.000
16.38500 1294.000
16.40000 1352.000
16.41500 1466.000
16.43000 1463.000
16.44500 1511.000
16.46000 1504.000
16.47500 1479.000
16.49000 1469.000
16.50500 1336.000
16.52000 1284.000
16.53500 1140.000
16.55000 1077.000
16.56500 1098.000
16.58000 1132.000
16.59500 1129.000
16.61000 1112.000
16.62500 1191.000
16.64000 1301.000
16.65500 1367.000
16.67000 1456.000
16.68500 1558.000
16.70000 1772.000
16.71500 1895.000
16.73000 2070.000
16.74500 2317.000
16.76000 2593.000
16.77500 3004.000
16.79000 3332.000
16.80500 3647.000
16.82000 4080.000
16.83500 4501.000
16.85000 4759.000
16.86500 4872.000
16.88000 4714.000
16.89500 4451.000
16.91000 4060.000
16.92500 3540.000
16.94000 3044.000
16.95500 2685.000
16.97000 2458.000
16.98500 2186.000
17.00000 1937.000
17.01500 1833.000
17.03000 1819.000
17.04500 1766.000
17.06000 1809.000
17.07500 1858.000
17.09000 1900.000
17.10500 1860.000
17.12000 1946.000
17.13500 1971.000
17.15000 1978.000
17.16500 2087.000
17.18000 2185.000
17.19500 2306.000
17.21000 2443.000
17.22500 2585.000
17.24000 2735.000
17.25500 2951.000
17.27000 3146.000
17.28500 3039.000
17.30000 2927.000
17.31500 2694.000
17.33000 2440.000
17.34500 2096.000
17.36000 1905.000
17.37500 1641.000
17.39000 1501.000
17.40500 1345.000
17.42000 1244.000
17.43500 1157.000
17.45000 1090.000
17.46500 1085.000
17.48000 1052.000
17.49500 1134.000
17.51000 1173.000
17.52500 1227.000
17.54000 1207.000
17.55500 1379.000
17.57000 1513.000
17.58500 1655.000
17.60000 1821.000
17.61500 2084.000
17.63000 2321.000
17.64500 2598.000
17.66000 2936.000
17.67500 3237.000
17.69000 3520.000
17.70500 3776.000
17.72000 3891.000
17.73500 3871.000
17.75000 3683.000
17.76500 3533.000
17.78000 3108.000
17.79500 2777.000
17.81000 2617.000
17.82500 2293.000
17.84000 2185.000
17.85500 2179.000
17.87000 2169.000
17.88500 2219.000
17.90000 2100.000
17.91500 2069.000
17.93000 1963.000
17.94500 1868.000
17.96000 1796.000
17.97500 1663.000
17.99000 1558.000
18.00500 1437.000
18.02000 1311.000
18.03500 1162.000
18.05000 1019.000
18.06500 940.000
18.08000 895.000
18.09500 807.000
18.11000 764.000
18.12500 719.000
18.14000 696.000
18.15500 678.000
18.17000 672.000
18.18500 649.000
18.20000 641.000
18.21500 649.000
18.23000 645.000
18.24500 637.000
18.26000 633.000
18.27500 649.000
18.29000 603.000
18.30500 648.000
18.32000 634.000
18.33500 630.000
18.35000 687.000
18.36500 673.000
18.38000 683.000
18.39500 702.000
18.41000 740.000
18.42500 744.000
18.44000 806.000
18.45500 804.000
18.47000 879.000
18.48500 984.000
18.50000 1031.000
18.51500 1129.000
18.53000 1252.000
18.54500 1361.000
18.56000 1504.000
18.57500 1605.000
18.59000 1929.000
18.60500 2111.000
18.62000 2418.000
18.63500 2642.000
18.65000 2852.000
18.66500 3116.000
18.68000 3304.000
18.69500 3302.000
18.71000 3181.000
18.72500 2960.000
18.74000 2740.000
18.75500 2403.000
18.77000 2073.000
18.78500 1777.000
18.80000 1585.000
18.81500 1519.000
18.83000 1434.000
18.84500 1326.000
18.86000 1307.000
18.87500 1235.000
18.89000 1313.000
18.90500 1452.000
18.92000 1559.000
18.93500 1720.000
18.95000 1953.000
18.96500 2165.000
18.98000 2422.000
18.99500 2813.000
19.01000 3172.000
19.02500 3731.000
19.04000 4167.000
19.05500 4649.000
19.07000 5214.000
19.08500 5642.000
19.10000 5868.000
19.11500 5882.000
19.13000 5574.000
19.14500 5049.000
19.16000 4335.000
19.17500 3684.000
19.19000 3139.000
19.20500 2705.000
19.22000 2471.000
19.23500 2245.000
19.25000 2264.000
19.26500 2283.000
19.28000 2310.000
19.29500 2461.000
19.31000 2699.000
19.32500 3048.000
19.34000 3375.000
19.35500 3669.000
19.37000 4012.000
19.38500 4099.000
19.40000 4207.000
19.41500 4071.000
19.43000 3769.000
19.44500 3466.000
19.46000 3164.000
19.47500 2759.000
19.49000 2579.000
19.50500 2334.000
19.52000 2199.000
19.53500 2209.000
19.55000 2270.000
19.56500 2384.000
19.58000 2617.000
19.59500 2871.000
19.61000 3096.000
19.62500 3374.000
19.64000 3810.000
19.65500 4041.000
19.67000 4265.000
19.68500 4404.000
19.70000 4412.000
19.71500 4454.000
19.73000 4338.000
19.74500 4426.000
19.76000 4585.000
19.77500 4732.000
19.79000 4962.000
19.80500 5090.000
19.82000 5103.000
19.83500 5125.000
19.85000 5017.000
19.86500 4764.000
19.88000 4430.000
19.89500 4128.000
19.91000 3945.000
19.92500 3849.000
19.94000 3699.000
19.95500 3523.000
19.97000 3404.000
19.98500 3190.000
20.00000 3020.000
20.01500 2794.000
20.03000 2463.000
20.04500 2151.000
20.06000 1906.000
20.07500 1676.000
20.09000 1460.000
20.10500 1296.000
20.12000 1150.000
20.13500 1039.000
20.15000 963.000
20.16500 930.000
20.18000 925.000
20.19500 911.000
20.21000 883.000
20.22500 846.000
20.24000 831.000
20.25500 839.000
20.27000 798.000
20.28500 760.000
20.30000 714.000
20.31500 672.000
20.33000 622.000
20.34500 588.000
20.36000 555.000
20.37500 557.000
20.39000 569.000
20.40500 540.000
20.42000 504.000
20.43500 496.000
20.45000 487.000
20.46500 467.000
20.48000 516.000
20.49500 473.000
20.51000 449.000
20.52500 479.000
20.54000 456.000
20.55500 455.000
20.57000 472.000
20.58500 494.000
20.60000 468.000
20.61500 505.000
20.63000 526.000
20.64500 533.000
20.66000 553.000
20.67500 568.000
20.69000 564.000
20.70500 623.000
20.72000 633.000
20.73500 627.000
20.75000 667.000
20.76500 681.000
20.78000 656.000
20.79500 705.000
20.81000 683.000
20.82500 655.000
20.84000 621.000
20.85500 601.000
20.87000 576.000
20.88500 544.000
20.90000 558.000
20.91500 573.000
20.93000 600.000
20.94500 591.000
20.96000 592.000
20.97500 623.000
20.99000 687.000
21.00500 755.000
21.02000 769.000
21.03500 857.000
21.05000 877.000
21.06500 867.000
21.08000 874.000
21.09500 916.000
21.11000 923.000
21.12500 895.000
21.14000 834.000
21.15500 842.000
21.17000 817.000
21.18500 819.000
21.20000 823.000
21.21500 868.000
21.23000 900.000
21.24500 933.000
21.26000 985.000
21.27500 999.000
21.29000 964.000
21.30500 1015.000
21.32000 1068.000
21.33500 1122.000
21.35000 1242.000
21.36500 1303.000
21.38000 1356.000
21.39500 1463.000
21.41000 1455.000
21.42500 1450.000
21.44000 1440.000
21.45500 1416.000
21.47000 1383.000
21.48500 1316.000
21.50000 1339.000
21.51500 1429.000
21.53000 1485.000
21.54500 1573.000
21.56000 1643.000
21.57500 1774.000
21.59000 1797.000
21.60500 1724.000
21.62000 1662.000
21.63500 1653.000
21.65000 1503.000
21.66500 1349.000
21.68000 1234.000
21.69500 1125.000
21.71000 1076.000
21.72500 1034.000
21.74000 998.000
21.75500 917.000
21.77000 879.000
21.78500 823.000
21.80000 817.000
21.81500 754.000
21.83000 686.000
21.84500 625.000
21.86000 566.000
21.87500 549.000
21.89000 537.000
21.90500 508.000
21.92000 529.000
21.93500 536.000
21.95000 520.000
21.96500 550.000
21.98000 577.000
21.99500 595.000
22.01000 672.000
22.02500 747.000
22.04000 791.000
22.05500 855.000
22.07000 927.000
22.08500 928.000
22.10000 957.000
22.11500 942.000
22.13000 859.000
22.14500 814.000
22.16000 729.000
22.17500 651.000
22.19000 575.000
22.20500 520.000
22.22000 479.000
22.23500 438.000
22.25000 464.000
22.26500 435.000
22.28000 400.000
22.29500 395.000
22.31000 379.000
22.32500 397.000
22.34000 374.000
22.35500 370.000
22.37000 373.000
22.38500 366.000
22.40000 348.000
22.41500 351.000
22.43000 366.000
22.44500 367.000
22.46000 375.000
22.47500 372.000
22.49000 391.000
22.50500 368.000
22.52000 358.000
22.53500 374.000
22.55000 367.000
22.56500 395.000
22.58000 408.000
22.59500 391.000
22.61000 390.000
22.62500 362.000
22.64000 386.000
22.65500 367.000
22.67000 380.000
22.68500 376.000
22.70000 378.000
22.71500 401.000
22.73000 409.000
22.74500 408.000
22.76000 418.000
22.77500 414.000
22.79000 436.000
22.80500 456.000
22.82000 461.000
22.83500 491.000
22.85000 506.000
22.86500 554.000
22.88000 531.000
22.89500 548.000
22.91000 565.000
22.92500 589.000
22.94000 571.000
22.95500 498.000
22.97000 514.000
22.98500 486.000
23.00000 524.000
23.01500 526.000
23.03000 491.000
23.04500 504.000
23.06000 459.000
23.07500 538.000
23.09000 546.000
23.10500 519.000
23.12000 466.000
23.13500 438.000
23.15000 425.000
23.16500 450.000
23.18000 415.000
23.19500 407.000
23.21000 406.000
23.22500 436.000
23.24000 435.000
23.25500 477.000
23.27000 458.000
23.28500 442.000
23.30000 448.000
23.31500 477.000
23.33000 522.000
23.34500 522.000
23.36000 562.000
23.37500 577.000
23.39000 585.000
23.40500 619.000
23.42000 604.000
23.43500 594.000
23.45000 657.000
23.46500 622.000
23.48000 653.000
23.49500 629.000
23.51000 606.000
23.52500 598.000
23.54000 583.000
23.55500 602.000
23.57000 533.000
23.58500 554.000
23.60000 580.000
23.61500 591.000
23.63000 629.000
23.64500 643.000
23.66000 645.000
23.67500 696.000
23.69000 710.000
23.70500 699.000
23.72000 686.000
23.73500 651.000
23.75000 672.000
23.76500 674.000
23.78000 668.000
23.79500 684.000
23.81000 681.000
23.82500 726.000
23.84000 720.000
23.85500 821.000
23.87000 824.000
23.88500 872.000
23.90000 950.000
23.91500 1022.000
23.93000 1039.000
23.94500 1006.000
23.96000 1016.000
23.97500 924.000
23.99000 881.000
24.00500 821.000
24.02000 747.000
24.03500 715.000
24.05000 681.000
24.06500 633.000
24.08000 617.000
24.09500 564.000
24.11000 559.000
24.12500 583.000
24.14000 567.000
24.15500 573.000
24.17000 628.000
24.18500 617.000
24.20000 639.000
24.21500 590.000
24.23000 581.000
24.24500 550.000
24.26000 569.000
24.27500 543.000
24.29000 521.000
24.30500 462.000
24.32000 454.000
24.33500 425.000
24.35000 431.000
24.36500 455.000
24.38000 415.000
24.39500 398.000
24.41000 412.000
24.42500 413.000
24.44000 410.000
24.45500 395.000
24.47000 382.000
24.48500 392.000
24.50000 407.000
24.51500 393.000
24.53000 409.000
24.54500 424.000
24.56000 414.000
24.57500 424.000
24.59000 435.000
24.60500 462.000
24.62000 482.000
24.63500 504.000
24.65000 564.000
24.66500 640.000
24.68000 600.000
24.69500 675.000
24.71000 663.000
24.72500 763.000
24.74000 739.000
24.75500 763.000
24.77000 773.000
24.78500 702.000
24.80000 609.000
24.81500 617.000
24.83000 589.000
24.84500 554.000
24.86000 549.000
24.87500 554.000
24.89000 527.000
24.90500 516.000
24.92000 512.000
24.93500 493.000
24.95000 501.000
24.96500 492.000
24.98000 474.000
24.99500 474.000
25.01000 452.000
25.02500 431.000
25.04000 418.000
25.05500 428.000
25.07000 441.000
25.08500 449.000
25.10000 454.000
25.11500 484.000
25.13000 491.000
25.14500 507.000
25.16000 560.000
25.17500 571.000
25.19000 613.000
25.20500 687.000
25.22000 733.000
25.23500 822.000
25.25000 884.000
25.26500 1053.000
25.28000 1116.000
25.29500 1311.000
25.31000 1479.000
25.32500 1471.000
25.34000 1565.000
25.35500 1619.000
25.37000 1611.000
25.38500 1467.000
25.40000 1434.000
25.41500 1322.000
25.43000 1317.000
25.44500 1276.000
25.46000 1163.000
25.47500 1083.000
25.49000 1077.000
25.50500 972.000
25.52000 906.000
25.53500 804.000
25.55000 794.000
25.56500 783.000
25.58000 747.000
25.59500 709.000
25.61000 733.000
25.62500 766.000
25.64000 802.000
25.65500 890.000
25.67000 957.000
25.68500 1037.000
25.70000 1135.000
25.71500 1259.000
25.73000 1444.000
25.74500 1564.000
25.76000 1635.000
25.77500 1655.000
25.79000 1689.000
25.80500 1582.000
25.82000 1523.000
25.83500 1414.000
25.85000 1242.000
25.86500 1222.000
25.88000 1155.000
25.89500 1088.000
25.91000 1020.000
25.92500 995.000
25.94000 992.000
25.95500 941.000
25.97000 850.000
25.98500 831.000
26.00000 782.000
26.01500 704.000
26.03000 640.000
26.04500 580.000
26.06000 556.000
26.07500 540.000
26.09000 551.000
26.10500 562.000
26.12000 530.000
26.13500 528.000
26.15000 538.000
26.16500 535.000
26.18000 580.000
26.19500 607.000
26.21000 608.000
26.22500 612.000
26.24000 606.000
26.25500 628.000
26.27000 628.000
26.28500 627.000
26.30000 677.000
26.31500 658.000
26.33000 675.000
26.34500 706.000
26.36000 675.000
26.37500 662.000
26.39000 612.000
26.40500 596.000
26.42000 559.000
26.43500 488.000
26.45000 453.000
26.46500 428.000
26.48000 445.000
26.49500 429.000
26.51000 437.000
26.52500 430.000
26.54000 449.000
26.55500 432.000
26.57000 421.000
26.58500 406.000
26.60000 436.000
26.61500 453.000
26.63000 440.000
26.64500 484.000
26.66000 496.000
26.67500 490.000
26.69000 546.000
26.70500 580.000
26.72000 636.000
26.73500 693.000
26.75000 730.000
26.76500 778.000
26.78000 848.000
26.79500 893.000
26.81000 901.000
26.82500 926.000
26.84000 973.000
26.85500 960.000
26.87000 1001.000
26.88500 957.000
26.90000 928.000
26.91500 971.000
26.93000 946.000
26.94500 859.000
26.96000 856.000
26.97500 827.000
26.99000 825.000
27.00500 803.000
27.02000 804.000
27.03500 791.000
27.05000 841.000
27.06500 829.000
27.08000 858.000
27.09500 893.000
27.11000 892.000
27.12500 935.000
27.14000 990.000
27.15500 1033.000
27.17000 1132.000
27.18500 1160.000
27.20000 1154.000
27.21500 1186.000
27.23000 1142.000
27.24500 1021.000
27.26000 940.000
27.27500 885.000
27.29000 768.000
27.30500 767.000
27.32000 765.000
27.33500 665.000
27.35000 585.000
27.36500 574.000
27.38000 558.000
27.39500 554.000
27.41000 495.000
27.42500 485.000
27.44000 479.000
27.45500 461.000
27.47000 489.000
27.48500 482.000
27.50000 485.000
27.51500 519.000
27.53000 524.000
27.54500 566.000
27.56000 613.000
27.57500 670.000
27.59000 740.000
27.60500 782.000
27.62000 829.000
27.63500 929.000
27.65000 1054.000
27.66500 1182.000
27.68000 1242.000
27.69500 1342.000
27.71000 1429.000
27.72500 1483.000
27.74000 1470.000
27.75500 1405.000
27.77000 1247.000
27.78500 1141.000
27.80000 1041.000
27.81500 967.000
27.83000 859.000
27.84500 824.000
27.86000 741.000
27.87500 683.000
27.89000 611.000
27.90500 578.000
27.92000 542.000
27.93500 529.000
27.95000 486.000
27.96500 471.000
27.98000 420.000
27.99500 433.000
28.01000 412.000
28.02500 410.000
28.04000 429.000
28.05500 397.000
28.07000 399.000
28.08500 440.000
28.10000 394.000
28.11500 422.000
28.13000 413.000
28.14500 422.000
28.16000 410.000
28.17500 421.000
28.19000 449.000
28.20500 489.000
28.22000 486.000
28.23500 549.000
28.25000 576.000
28.26500 508.000
28.28000 507.000
28.29500 537.000
28.31000 595.000
28.32500 656.000
28.34000 732.000
28.35500 759.000
28.37000 826.000
28.38500 878.000
28.40000 960.000
28.41500 1022.000
28.43000 1063.000
28.44500 1088.000
28.46000 1094.000
28.47500 1048.000
28.49000 1017.000
28.50500 965.000
28.52000 899.000
28.53500 851.000
28.55000 821.000
28.56500 775.000
28.58000 769.000
28.59500 791.000
28.61000 795.000
28.62500 833.000
28.64000 942.000
28.65500 1003.000
28.67000 1108.000
28.68500 1197.000
28.70000 1332.000
28.71500 1442.000
28.73000 1566.000
28.74500 1639.000
28.76000 1608.000
28.77500 1523.000
28.79000 1476.000
28.80500 1432.000
28.82000 1315.000
28.83500 1237.000
28.85000 1154.000
28.86500 1027.000
28.88000 969.000
28.89500 905.000
28.91000 921.000
28.92500 931.000
28.94000 900.000
28.95500 973.000
28.97000 1050.000
28.98500 1133.000
29.00000 1155.000
29.01500 1227.000
29.03000 1349.000
29.04500 1464.000
29.06000 1509.000
29.07500 1597.000
29.09000 1682.000
29.10500 1786.000
29.12000 1825.000
29.13500 1779.000
29.15000 1636.000
29.16500 1512.000
29.18000 1377.000
29.19500 1166.000
29.21000 989.000
29.22500 876.000
29.24000 759.000
29.25500 705.000
29.27000 662.000
29.28500 632.000
29.30000 581.000
29.31500 517.000
29.33000 526.000
29.34500 495.000
29.36000 490.000
29.37500 496.000
29.39000 503.000
29.40500 487.000
29.42000 580.000
29.43500 567.000
29.45000 556.000
29.46500 635.000
29.48000 637.000
29.49500 711.000
29.51000 759.000
29.52500 794.000
29.54000 849.000
29.55500 842.000
29.57000 947.000
29.58500 948.000
29.60000 993.000
29.61500 1058.000
29.63000 1058.000
29.64500 1037.000
29.66000 1028.000
29.67500 1018.000
29.69000 1017.000
29.70500 971.000
29.72000 862.000
29.73500 820.000
29.75000 756.000
29.76500 700.000
29.78000 690.000
29.79500 599.000
29.81000 553.000
29.82500 540.000
29.84000 548.000
29.85500 530.000
29.87000 518.000
29.88500 537.000
29.90000 538.000
29.91500 512.000
29.93000 506.000
29.94500 570.000
29.96000 545.000
29.97500 537.000
29.99000 524.000
30.00500 524.000
30.02000 488.000
30.03500 480.000
30.05000 489.000
30.06500 504.000
30.08000 493.000
30.09500 536.000
30.11000 535.000
30.12500 548.000
30.14000 549.000
30.15500 603.000
30.17000 622.000
30.18500 656.000
30.20000 678.000
30.21500 730.000
30.23000 822.000
30.24500 891.000
30.26000 924.000
30.27500 995.000
30.29000 1032.000
30.30500 1089.000
30.32000 1030.000
30.33500 996.000
30.35000 986.000
30.36500 996.000
30.38000 923.000
30.39500 864.000
30.41000 862.000
30.42500 767.000
30.44000 699.000
30.45500 639.000
30.47000 590.000
30.48500 513.000
30.50000 508.000
30.51500 467.000
30.53000 418.000
30.54500 459.000
30.56000 469.000
30.57500 470.000
30.59000 433.000
30.60500 470.000
30.62000 495.000
30.63500 522.000
30.65000 532.000
30.66500 514.000
30.68000 588.000
30.69500 588.000
30.71000 572.000
30.72500 588.000
30.74000 564.000
30.75500 537.000
30.77000 565.000
30.78500 522.000
30.80000 511.000
30.81500 483.000
30.83000 493.000
30.84500 489.000
30.86000 433.000
30.87500 420.000
30.89000 436.000
30.90500 417.000
30.92000 418.000
30.93500 409.000
30.95000 409.000
30.96500 368.000
30.98000 409.000
30.99500 427.000
31.01000 423.000
31.02500 464.000
31.04000 478.000
31.05500 477.000
31.07000 514.000
31.08500 556.000
31.10000 561.000
31.11500 573.000
31.13000 593.000
31.14500 617.000
31.16000 650.000
31.17500 704.000
31.19000 729.000
31.20500 787.000
31.22000 846.000
31.23500 839.000
31.25000 856.000
31.26500 799.000
31.28000 854.000
31.29500 828.000
31.31000 808.000
31.32500 741.000
31.34000 750.000
31.35500 766.000
31.37000 675.000
31.38500 662.000
31.40000 596.000
31.41500 614.000
31.43000 594.000
31.44500 559.000
31.46000 613.000
31.47500 583.000
31.49000 589.000
31.50500 574.000
31.52000 526.000
31.53500 539.000
31.55000 484.000
31.56500 497.000
31.58000 473.000
31.59500 487.000
31.61000 438.000
31.62500 423.000
31.64000 444.000
31.65500 445.000
31.67000 459.000
31.68500 445.000
31.70000 448.000
31.71500 447.000
31.73000 471.000
31.74500 463.000
31.76000 462.000
31.77500 465.000
31.79000 441.000
31.80500 409.000
31.82000 374.000
31.83500 372.000
31.85000 390.000
31.86500 352.000
31.88000 335.000
31.89500 360.000
31.91000 373.000
31.92500 375.000
31.94000 334.000
31.95500 366.000
31.97000 376.000
31.98500 379.000
32.00000 438.000
32.01500 411.000
32.03000 438.000
32.04500 468.000
32.06000 479.000
32.07500 474.000
32.09000 471.000
32.10500 454.000
32.12000 437.000
32.13500 413.000
32.15000 380.000
32.16500 417.000
32.18000 390.000
32.19500 389.000
32.21000 369.000
32.22500 362.000
32.24000 341.000
32.25500 369.000
32.27000 338.000
32.28500 341.000
32.30000 353.000
32.31500 330.000
32.33000 333.000
32.34500 332.000
32.36000 338.000
32.37500 346.000
32.39000 330.000
32.40500 366.000
32.42000 324.000
32.43500 319.000
32.45000 332.000
32.46500 349.000
32.48000 336.000
32.49500 332.000
32.51000 318.000
32.52500 323.000
32.54000 331.000
32.55500 310.000
32.57000 356.000
32.58500 340.000
32.60000 340.000
32.61500 354.000
32.63000 342.000
32.64500 390.000
32.66000 375.000
32.67500 415.000
32.69000 457.000
32.70500 456.000
32.72000 481.000
32.73500 497.000
32.75000 575.000
32.76500 577.000
32.78000 670.000
32.79500 706.000
32.81000 763.000
32.82500 810.000
32.84000 795.000
32.85500 814.000
32.87000 826.000
32.88500 863.000
32.90000 886.000
32.91500 923.000
32.93000 889.000
32.94500 882.000
32.96000 961.000
32.97500 951.000
32.99000 989.000
33.00500 973.000
33.02000 990.000
33.03500 991.000
33.05000 960.000
33.06500 1016.000
33.08000 1113.000
33.09500 1117.000
33.11000 1144.000
33.12500 1142.000
33.14000 1168.000
33.15500 1170.000
33.17000 1103.000
33.18500 1125.000
33.20000 1097.000
33.21500 1035.000
33.23000 1037.000
33.24500 993.000
33.26000 988.000
33.27500 903.000
33.29000 876.000
33.30500 892.000
33.32000 853.000
33.33500 869.000
33.35000 856.000
33.36500 821.000
33.38000 860.000
33.39500 874.000
33.41000 881.000
33.42500 852.000
33.44000 851.000
33.45500 831.000
33.47000 831.000
33.48500 796.000
33.50000 768.000
33.51500 731.000
33.53000 720.000
33.54500 691.000
33.56000 678.000
33.57500 684.000
33.59000 673.000
33.60500 654.000
33.62000 687.000
33.63500 702.000
33.65000 696.000
33.66500 737.000
33.68000 806.000
33.69500 876.000
33.71000 890.000
33.72500 934.000
33.74000 998.000
33.75500 1065.000
33.77000 1032.000
33.78500 1014.000
33.80000 996.000
33.81500 1009.000
33.83000 906.000
33.84500 823.000
33.86000 773.000
33.87500 715.000
33.89000 640.000
33.90500 630.000
33.92000 622.000
33.93500 623.000
33.95000 613.000
33.96500 612.000
33.98000 617.000
33.99500 624.000
34.01000 619.000
34.02500 708.000
34.04000 726.000
34.05500 794.000
34.07000 857.000
34.08500 897.000
34.10000 1053.000
34.11500 1160.000
34.13000 1252.000
34.14500 1308.000
34.16000 1348.000
34.17500 1394.000
34.19000 1462.000
34.20500 1559.000
34.22000 1660.000
34.23500 1688.000
34.25000 1688.000
34.26500 1780.000
34.28000 1875.000
34.29500 1934.000
34.31000 1855.000
34.32500 1788.000
34.34000 1627.000
34.35500 1603.000
34.37000 1404.000
34.38500 1308.000
34.40000 1173.000
34.41500 1090.000
34.43000 976.000
34.44500 881.000
34.46000 825.000
34.47500 818.000
34.49000 783.000
34.50500 762.000
34.52000 725.000
34.53500 723.000
34.55000 670.000
34.56500 674.000
34.58000 721.000
34.59500 700.000
34.61000 727.000
34.62500 793.000
34.64000 796.000
34.65500 826.000
34.67000 861.000
34.68500 827.000
34.70000 870.000
34.71500 890.000
34.73000 942.000
34.74500 888.000
34.76000 911.000
34.77500 933.000
34.79000 909.000
34.80500 876.000
34.82000 899.000
34.83500 850.000
34.85000 782.000
34.86500 685.000
34.88000 642.000
34.89500 608.000
34.91000 559.000
34.92500 480.000
34.94000 468.000
34.95500 526.000
34.97000 512.000
34.98500 509.000
35.00000 517.000
35.01500 453.000
35.03000 468.000
35.04500 469.000
35.06000 421.000
35.07500 373.000
35.09000 371.000
35.10500 361.000
35.12000 418.000
35.13500 372.000
35.15000 368.000
35.16500 387.000
35.18000 395.000
35.19500 389.000
35.21000 418.000
35.22500 429.000
35.24000 449.000
35.25500 481.000
35.27000 533.000
35.28500 531.000
35.30000 574.000
35.31500 598.000
35.33000 634.000
35.34500 606.000
35.36000 546.000
35.37500 525.000
35.39000 482.000
35.40500 453.000
35.42000 420.000
35.43500 409.000
35.45000 424.000
35.46500 400.000
35.48000 407.000
35.49500 397.000
35.51000 405.000
35.52500 417.000
35.54000 422.000
35.55500 428.000
35.57000 444.000
35.58500 452.000
35.60000 469.000
35.61500 454.000
35.63000 450.000
35.64500 496.000
35.66000 516.000
35.67500 533.000
35.69000 552.000
35.70500 604.000
35.72000 629.000
35.73500 654.000
35.75000 665.000
35.76500 726.000
35.78000 736.000
35.79500 726.000
35.81000 734.000
35.82500 693.000
35.84000 709.000
35.85500 700.000
35.87000 711.000
35.88500 755.000
35.90000 726.000
35.91500 730.000
35.93000 756.000
35.94500 715.000
35.96000 684.000
35.97500 679.000
35.99000 665.000
36.00500 627.000
36.02000 563.000
36.03500 536.000
36.05000 494.000
36.06500 464.000
36.08000 462.000
36.09500 426.000
36.11000 403.000
36.12500 375.000
36.14000 389.000
36.15500 416.000
36.17000 428.000
36.18500 402.000
36.20000 392.000
36.21500 379.000
36.23000 423.000
36.24500 444.000
36.26000 453.000
36.27500 464.000
36.29000 505.000
36.30500 532.000
36.32000 548.000
36.33500 539.000
36.35000 540.000
36.36500 514.000
36.38000 519.000
36.39500 505.000
36.41000 499.000
36.42500 534.000
36.44000 470.000
36.45500 479.000
36.47000 416.000
36.48500 418.000
36.50000 403.000
36.51500 394.000
36.53000 386.000
36.54500 358.000
36.56000 360.000
36.57500 381.000
36.59000 342.000
36.60500 370.000
36.62000 357.000
36.63500 387.000
36.65000 372.000
36.66500 376.000
36.68000 387.000
36.69500 424.000
36.71000 424.000
36.72500 401.000
36.74000 375.000
36.75500 406.000
36.77000 391.000
36.78500 390.000
36.80000 402.000
36.81500 379.000
36.83000 365.000
36.84500 382.000
36.86000 418.000
36.87500 423.000
36.89000 446.000
36.90500 470.000
36.92000 513.000
36.93500 587.000
36.95000 606.000
36.96500 637.000
36.98000 697.000
36.99500 732.000
37.01000 783.000
37.02500 815.000
37.04000 837.000
37.05500 832.000
37.07000 811.000
37.08500 814.000
37.10000 793.000
37.11500 678.000
37.13000 633.000
37.14500 642.000
37.16000 566.000
37.17500 576.000
37.19000 542.000
37.20500 544.000
37.22000 504.000
37.23500 526.000
37.25000 502.000
37.26500 505.000
37.28000 532.000
37.29500 516.000
37.31000 527.000
37.32500 550.000
37.34000 581.000
37.35500 586.000
37.37000 530.000
37.38500 537.000
37.40000 563.000
37.41500 549.000
37.43000 549.000
37.44500 545.000
37.46000 548.000
37.47500 574.000
37.49000 589.000
37.50500 594.000
37.52000 590.000
37.53500 575.000
37.55000 541.000
37.56500 517.000
37.58000 510.000
37.59500 489.000
37.61000 439.000
37.62500 425.000
37.64000 399.000
37.65500 401.000
37.67000 407.000
37.68500 381.000
37.70000 365.000
37.71500 373.000
37.73000 378.000
37.74500 380.000
37.76000 391.000
37.77500 410.000
37.79000 405.000
37.80500 422.000
37.82000 447.000
37.83500 451.000
37.85000 455.000
37.86500 507.000
37.88000 541.000
37.89500 579.000
37.91000 623.000
37.92500 665.000
37.94000 717.000
37.95500 749.000
37.97000 782.000
37.98500 797.000
38.00000 788.000
38.01500 779.000
38.03000 750.000
38.04500 703.000
38.06000 694.000
38.07500 658.000
38.09000 635.000
38.10500 532.000
38.12000 514.000
38.13500 527.000
38.15000 489.000
38.16500 493.000
38.18000 517.000
38.19500 498.000
38.21000 530.000
38.22500 569.000
38.24000 562.000
38.25500 580.000
38.27000 574.000
38.28500 569.000
38.30000 562.000
38.31500 560.000
38.33000 546.000
38.34500 526.000
38.36000 520.000
38.37500 504.000
38.39000 516.000
38.40500 482.000
38.42000 496.000
38.43500 494.000
38.45000 542.000
38.46500 566.000
38.48000 597.000
38.49500 599.000
38.51000 606.000
38.52500 626.000
38.54000 706.000
38.55500 695.000
38.57000 659.000
38.58500 638.000
38.60000 596.000
38.61500 599.000
38.63000 577.000
38.64500 537.000
38.66000 526.000
38.67500 498.000
38.69000 519.000
38.70500 538.000
38.72000 534.000
38.73500 523.000
38.75000 550.000
38.76500 575.000
38.78000 611.000
38.79500 554.000
38.81000 577.000
38.82500 602.000
38.84000 543.000
38.85500 550.000
38.87000 550.000
38.88500 544.000
38.90000 559.000
38.91500 579.000
38.93000 609.000
38.94500 657.000
38.96000 652.000
38.97500 649.000
38.99000 614.000
39.00500 632.000
39.02000 585.000
39.03500 537.000
39.05000 487.000
39.06500 462.000
39.08000 421.000
39.09500 374.000
39.11000 406.000
39.12500 365.000
39.14000 366.000
39.15500 353.000
39.17000 349.000
39.18500 345.000
39.20000 364.000
39.21500 346.000
39.23000 347.000
39.24500 358.000
39.26000 342.000
39.27500 332.000
39.29000 334.000
39.30500 351.000
39.32000 337.000
39.33500 356.000
39.35000 367.000
39.36500 397.000
39.38000 396.000
39.39500 405.000
39.41000 431.000
39.42500 424.000
39.44000 453.000
39.45500 456.000
39.47000 469.000
39.48500 469.000
39.50000 463.000
39.51500 508.000
39.53000 489.000
39.54500 465.000
39.56000 474.000
39.57500 505.000
39.59000 531.000
39.60500 516.000
39.62000 492.000
39.63500 435.000
39.65000 473.000
39.66500 423.000
39.68000 418.000
39.69500 377.000
39.71000 379.000
39.72500 349.000
39.74000 326.000
39.75500 342.000
39.77000 313.000
39.78500 335.000
39.80000 339.000
39.81500 330.000
39.83000 329.000
39.84500 325.000
39.86000 339.000
39.87500 334.000
39.89000 366.000
39.90500 397.000
39.92000 466.000
39.93500 482.000
39.95000 488.000
39.96500 490.000
39.98000 495.000
39.99500 506.000
40.01000 485.000
40.02500 537.000
40.04000 499.000
40.05500 469.000
40.07000 470.000
40.08500 440.000
40.10000 443.000
40.11500 439.000
40.13000 399.000
40.14500 458.000
40.16000 426.000
40.17500 416.000
40.19000 395.000
40.20500 420.000
40.22000 426.000
40.23500 416.000
40.25000 407.000
40.26500 411.000
40.28000 413.000
40.29500 413.000
40.31000 380.000
40.32500 400.000
40.34000 398.000
40.35500 404.000
40.37000 381.000
40.38500 414.000
40.40000 364.000
40.41500 370.000
40.43000 369.000
40.44500 378.000
40.46000 400.000
40.47500 421.000
40.49000 430.000
40.50500 492.000
40.52000 484.000
40.53500 517.000
40.55000 498.000
40.56500 523.000
40.58000 524.000
40.59500 552.000
40.61000 514.000
40.62500 540.000
40.64000 548.000
40.65500 526.000
40.67000 492.000
40.68500 481.000
40.70000 461.000
40.71500 465.000
40.73000 442.000
40.74500 451.000
40.76000 417.000
40.77500 378.000
40.79000 353.000
40.80500 349.000
40.82000 336.000
40.83500 345.000
40.85000 336.000
40.86500 376.000
40.88000 376.000
40.89500 396.000
40.91000 340.000
40.92500 342.000
40.94000 368.000
40.95500 328.000
40.97000 360.000
40.98500 349.000
41.00000 347.000
41.01500 348.000
41.03000 326.000
41.04500 328.000
41.06000 337.000
41.07500 344.000
41.09000 349.000
41.10500 369.000
41.12000 380.000
41.13500 390.000
41.15000 409.000
41.16500 466.000
41.18000 419.000
41.19500 453.000
41.21000 500.000
41.22500 511.000
41.24000 536.000
41.25500 613.000
41.27000 649.000
41.28500 659.000
41.30000 651.000
41.31500 645.000
41.33000 645.000
41.34500 624.000
41.36000 600.000
41.37500 591.000
41.39000 586.000
41.40500 522.000
41.42000 426.000
41.43500 423.000
41.45000 408.000
41.46500 372.000
41.48000 363.000
41.49500 358.000
41.51000 347.000
41.52500 338.000
41.54000 348.000
41.55500 358.000
41.57000 368.000
41.58500 397.000
41.60000 395.000
41.61500 441.000
41.63000 468.000
41.64500 508.000
41.66000 504.000
41.67500 511.000
41.69000 532.000
41.70500 549.000
41.72000 553.000
41.73500 513.000
41.75000 562.000
41.76500 546.000
41.78000 571.000
41.79500 558.000
41.81000 584.000
41.82500 545.000
41.84000 537.000
41.85500 530.000
41.87000 490.000
41.88500 444.000
41.90000 437.000
41.91500 397.000
41.93000 382.000
41.94500 386.000
41.96000 397.000
41.97500 398.000
41.99000 402.000
42.00500 425.000
42.02000 456.000
42.03500 426.000
42.05000 458.000
42.06500 502.000
42.08000 551.000
42.09500 590.000
42.11000 578.000
42.12500 660.000
42.14000 705.000
42.15500 688.000
42.17000 712.000
42.18500 675.000
42.20000 663.000
42.21500 610.000
42.23000 551.000
42.24500 477.000
42.26000 494.000
42.27500 457.000
42.29000 460.000
42.30500 436.000
42.32000 395.000
42.33500 361.000
42.35000 367.000
42.36500 380.000
42.38000 412.000
42.39500 390.000
42.41000 386.000
42.42500 387.000
42.44000 400.000
42.45500 420.000
42.47000 457.000
42.48500 504.000
42.50000 549.000
42.51500 576.000
42.53000 580.000
42.54500 606.000
42.56000 636.000
42.57500 629.000
42.59000 626.000
42.60500 654.000
42.62000 655.000
42.63500 587.000
42.65000 606.000
42.66500 581.000
42.68000 542.000
42.69500 512.000
42.71000 501.000
42.72500 507.000
42.74000 486.000
42.75500 510.000
42.77000 482.000
42.78500 488.000
42.80000 519.000
42.81500 510.000
42.83000 553.000
42.84500 547.000
42.86000 559.000
42.87500 599.000
42.89000 603.000
42.90500 598.000
42.92000 611.000
42.93500 656.000
42.95000 652.000
42.96500 661.000
42.98000 638.000
42.99500 637.000
43.01000 661.000
43.02500 611.000
43.04000 632.000
43.05500 632.000
43.07000 633.000
43.08500 613.000
43.10000 661.000
43.11500 675.000
43.13000 662.000
43.14500 680.000
43.16000 701.000
43.17500 670.000
43.19000 705.000
43.20500 666.000
43.22000 619.000
43.23500 637.000
43.25000 633.000
43.26500 639.000
43.28000 626.000
43.29500 605.000
43.31000 567.000
43.32500 558.000
43.34000 534.000
43.35500 509.000
43.37000 466.000
43.38500 489.000
43.40000 476.000
43.41500 459.000
43.43000 477.000
43.44500 502.000
43.46000 529.000
43.47500 478.000
43.49000 498.000
43.50500 524.000
43.52000 539.000
43.53500 556.000
43.55000 558.000
43.56500 562.000
43.58000 573.000
43.59500 539.000
43.61000 502.000
43.62500 515.000
43.64000 512.000
43.65500 520.000
43.67000 465.000
43.68500 459.000
43.70000 462.000
43.71500 475.000
43.73000 459.000
43.74500 445.000
43.76000 440.000
43.77500 437.000
43.79000 466.000
43.80500 485.000
43.82000 451.000
43.83500 417.000
43.85000 410.000
43.86500 406.000
43.88000 356.000
43.89500 345.000
43.91000 352.000
43.92500 375.000
43.94000 346.000
43.95500 328.000
43.97000 332.000
43.98500 370.000
44.00000 359.000
44.01500 373.000
44.03000 388.000
44.04500 381.000
44.06000 366.000
44.07500 407.000
44.09000 400.000
44.10500 425.000
44.12000 444.000
44.13500 468.000
44.15000 454.000
44.16500 428.000
44.18000 468.000
44.19500 417.000
44.21000 402.000
44.22500 419.000
44.24000 412.000
44.25500 345.000
44.27000 349.000
44.28500 358.000
44.30000 357.000
44.31500 352.000
44.33000 331.000
44.34500 323.000
44.36000 352.000
44.37500 337.000
44.39000 338.000
44.40500 328.000
44.42000 336.000
44.43500 346.000
44.45000 341.000
44.46500 357.000
44.48000 355.000
44.49500 347.000
44.51000 382.000
44.52500 439.000
44.54000 448.000
44.55500 477.000
44.57000 506.000
44.58500 563.000
44.60000 567.000
44.61500 577.000
44.63000 570.000
44.64500 553.000
44.66000 503.000
44.67500 460.000
44.69000 445.000
44.70500 410.000
44.72000 404.000
44.73500 368.000
44.75000 368.000
44.76500 352.000
44.78000 338.000
44.79500 367.000
44.81000 322.000
44.82500 331.000
44.84000 368.000
44.85500 352.000
44.87000 329.000
44.88500 349.000
44.90000 336.000
44.91500 316.000
44.93000 300.000
44.94500 311.000
44.96000 318.000
44.97500 329.000
44.99000 301.000
