5.00000 1179.000
5.01500 1189.000
5.03000 1182.000
5.04500 1136.000
5.06000 1174.000
5.07500 1166.000
5.09000 1201.000
5.10500 1186.000
5.12000 1170.000
5.13500 1177.000
5.15000 1182.000
5.16500 1227.000
5.18000 1204.000
5.19500 1157.000
5.21000 1174.000
5.22500 1194.000
5.24000 1213.000
5.25500 1145.000
5.27000 1182.000
5.28500 1214.000
5.30000 1212.000
5.31500 1232.000
5.33000 1228.000
5.34500 1268.000
5.36000 1218.000
5.37500 1170.000
5.39000 1168.000
5.40500 1173.000
5.42000 1194.000
5.43500 1215.000
5.45000 1219.000
5.46500 1190.000
5.48000 1219.000
5.49500 1262.000
5.51000 1231.000
5.52500 1202.000
5.54000 1217.000
5.55500 1192.000
5.57000 1192.000
5.58500 1204.000
5.60000 1154.000
5.61500 1210.000
5.63000 1252.000
5.64500 1209.000
5.66000 1215.000
5.67500 1192.000
5.69000 1201.000
5.70500 1209.000
5.72000 1192.000
5.73500 1171.000
5.75000 1131.000
5.76500 1155.000
5.78000 1179.000
5.79500 1222.000
5.81000 1216.000
5.82500 1229.000
5.84000 1203.000
5.85500 1165.000
5.87000 1195.000
5.88500 1190.000
5.90000 1193.000
5.91500 1153.000
5.93000 1151.000
5.94500 1189.000
5.96000 1192.000
5.97500 1209.000
5.99000 1176.000
6.00500 1133.000
6.02000 1181.000
6.03500 1201.000
6.05000 1140.000
6.06500 1183.000
6.08000 1164.000
6.09500 1108.000
6.11000 1166.000
6.12500 1256.000
6.14000 1193.000
6.15500 1224.000
6.17000 1227.000
6.18500 1168.000
6.20000 1172.000
6.21500 1216.000
6.23000 1186.000
6.24500 1186.000
6.26000 1183.000
6.27500 1190.000
6.29000 1195.000
6.30500 1155.000
6.32000 1178.000
6.33500 1173.000
6.35000 1157.000
6.36500 1205.000
6.38000 1180.000
6.39500 1176.000
6.41000 1268.000
6.42500 1215.000
6.44000 1203.000
6.45500 1195.000
6.47000 1190.000
6.48500 1194.000
6.50000 1222.000
6.51500 1203.000
6.53000 1229.000
6.54500 1163.000
6.56000 1198.000
6.57500 1170.000
6.59000 1136.000
6.60500 1177.000
6.62000 1145.000
6.63500 1131.000
6.65000 1176.000
6.66500 1099.000
6.68000 1143.000
6.69500 1110.000
6.71000 1082.000
6.72500 1109.000
6.74000 1123.000
6.75500 1070.000
6.77000 1084.000
6.78500 1134.000
6.80000 1111.000
6.81500 1087.000
6.83000 1085.000
6.84500 1078.000
6.86000 1089.000
6.87500 1041.000
6.89000 1059.000
6.90500 1046.000
6.92000 1033.000
6.93500 1044.000
6.95000 993.000
6.96500 1032.000
6.98000 1039.000
6.99500 1102.000
7.01000 1059.000
7.02500 1042.000
7.04000 1079.000
7.05500 1072.000
7.07000 1031.000
7.08500 1066.000
7.10000 1072.000
7.11500 1058.000
7.13000 1093.000
7.14500 1071.000
7.16000 1057.000
7.17500 1020.000
7.19000 1050.000
7.20500 1047.000
7.22000 1041.000
7.23500 1061.000
7.25000 1096.000
7.26500 1049.000
7.28000 1016.000
7.29500 1074.000
7.31000 1086.000
7.32500 1064.000
7.34000 1061.000
7.35500 1010.000
7.37000 989.000
7.38500 954.000
7.40000 1046.000
7.41500 1010.000
7.43000 1029.000
7.44500 1023.000
7.46000 1031.000
7.47500 988.000
7.49000 1018.000
7.50500 1025.000
7.52000 1007.000
7.53500 990.000
7.55000 989.000
7.56500 973.000
7.58000 986.000
7.59500 1037.000
7.61000 1082.000
7.62500 1064.000
7.64000 1023.000
7.65500 1014.000
7.67000 1022.000
7.68500 1026.000
7.70000 954.000
7.71500 950.000
7.73000 996.000
7.74500 1009.000
7.76000 985.000
7.77500 1004.000
7.79000 992.000
7.80500 959.000
7.82000 990.000
7.83500 978.000
7.85000 1030.000
7.86500 1022.000
7.88000 989.000
7.89500 991.000
7.91000 967.000
7.92500 982.000
7.94000 980.000
7.95500 968.000
7.97000 915.000
7.98500 917.000
8.00000 967.000
8.01500 1007.000
8.03000 994.000
8.04500 939.000
8.06000 984.000
8.07500 1002.000
8.09000 942.000
8.10500 958.000
8.12000 983.000
8.13500 955.000
8.15000 953.000
8.16500 946.000
8.18000 926.000
8.19500 921.000
8.21000 951.000
8.22500 959.000
8.24000 961.000
8.25500 969.000
8.27000 895.000
8.28500 912.000
8.30000 931.000
8.31500 942.000
8.33000 931.000
8.34500 928.000
8.36000 954.000
8.37500 907.000
8.39000 918.000
8.40500 963.000
8.42000 942.000
8.43500 895.000
8.45000 980.000
8.46500 952.000
8.48000 958.000
8.49500 972.000
8.51000 942.000
8.52500 936.000
8.54000 893.000
8.55500 893.000
8.57000 916.000
8.58500 889.000
8.60000 929.000
8.61500 902.000
8.63000 896.000
8.64500 870.000
8.66000 876.000
8.67500 911.000
8.69000 903.000
8.70500 884.000
8.72000 893.000
8.73500 919.000
8.75000 905.000
8.76500 915.000
8.78000 928.000
8.79500 921.000
8.81000 862.000
8.82500 819.000
8.84000 837.000
8.85500 942.000
8.87000 926.000
8.88500 889.000
8.90000 859.000
8.91500 882.000
8.93000 927.000
8.94500 927.000
8.96000 901.000
8.97500 896.000
8.99000 868.000
9.00500 878.000
9.02000 937.000
9.03500 881.000
9.05000 863.000
9.06500 861.000
9.08000 890.000
9.09500 878.000
9.11000 917.000
9.12500 947.000
9.14000 930.000
9.15500 917.000
9.17000 900.000
9.18500 901.000
9.20000 921.000
9.21500 944.000
9.23000 956.000
9.24500 973.000
9.26000 964.000
9.27500 941.000
9.29000 922.000
9.30500 889.000
9.32000 871.000
9.33500 871.000
9.35000 856.000
9.36500 871.000
9.38000 821.000
9.39500 851.000
9.41000 872.000
9.42500 865.000
9.44000 829.000
9.45500 839.000
9.47000 846.000
9.48500 884.000
9.50000 894.000
9.51500 853.000
9.53000 862.000
9.54500 855.000
9.56000 815.000
9.57500 841.000
9.59000 834.000
9.60500 837.000
9.62000 792.000
9.63500 827.000
9.65000 866.000
9.66500 846.000
9.68000 837.000
9.69500 776.000
9.71000 786.000
9.72500 812.000
9.74000 811.000
9.75500 826.000
9.77000 811.000
9.78500 833.000
9.80000 847.000
9.81500 822.000
9.83000 834.000
9.84500 814.000
9.86000 827.000
9.87500 818.000
9.89000 823.000
9.90500 798.000
9.92000 856.000
9.93500 831.000
9.95000 805.000
9.96500 801.000
9.98000 842.000
9.99500 863.000
10.01000 856.000
10.02500 847.000
10.04000 862.000
10.05500 896.000
10.07000 912.000
10.08500 913.000
10.10000 855.000
10.11500 904.000
10.13000 882.000
10.14500 968.000
10.16000 1014.000
10.17500 1001.000
10.19000 1040.000
10.20500 1063.000
10.22000 1073.000
10.23500 1139.000
10.25000 1155.000
10.26500 1197.000
10.28000 1181.000
10.29500 1156.000
10.31000 1217.000
10.32500 1168.000
10.34000 1053.000
10.35500 1023.000
10.37000 979.000
10.38500 916.000
10.40000 909.000
10.41500 886.000
10.43000 848.000
10.44500 808.000
10.46000 789.000
10.47500 814.000
10.49000 820.000
10.50500 772.000
10.52000 813.000
10.53500 828.000
10.55000 758.000
10.56500 799.000
10.58000 783.000
10.59500 794.000
10.61000 789.000
10.62500 743.000
10.64000 775.000
10.65500 786.000
10.67000 781.000
10.68500 825.000
10.70000 819.000
10.71500 775.000
10.73000 822.000
10.74500 819.000
10.76000 830.000
10.77500 817.000
10.79000 794.000
10.80500 856.000
10.82000 844.000
10.83500 841.000
10.85000 868.000
10.86500 921.000
10.88000 902.000
10.89500 934.000
10.91000 991.000
10.92500 1026.000
10.94000 1005.000
10.95500 1022.000
10.97000 1020.000
10.98500 1050.000
11.00000 1017.000
11.01500 968.000
11.03000 929.000
11.04500 940.000
11.06000 962.000
11.07500 902.000
11.09000 923.000
11.10500 941.000
11.12000 942.000
11.13500 905.000
11.15000 932.000
11.16500 998.000
11.18000 987.000
11.19500 994.000
11.21000 1078.000
11.22500 1116.000
11.24000 1181.000
11.25500 1180.000
11.27000 1248.000
11.28500 1297.000
11.30000 1378.000
11.31500 1491.000
11.33000 1541.000
11.34500 1602.000
11.36000 1607.000
11.37500 1630.000
11.39000 1485.000
11.40500 1369.000
11.42000 1271.000
11.43500 1104.000
11.45000 1013.000
11.46500 940.000
11.48000 884.000
11.49500 842.000
11.51000 853.000
11.52500 830.000
11.54000 808.000
11.55500 847.000
11.57000 780.000
11.58500 787.000
11.60000 788.000
11.61500 823.000
11.63000 766.000
11.64500 731.000
11.66000 812.000
11.67500 778.000
11.69000 812.000
11.70500 815.000
11.72000 800.000
11.73500 790.000
11.75000 788.000
11.76500 863.000
11.78000 848.000
11.79500 825.000
11.81000 853.000
11.82500 874.000
11.84000 877.000
11.85500 898.000
11.87000 931.000
11.88500 972.000
11.90000 945.000
11.91500 911.000
11.93000 955.000
11.94500 994.000
11.96000 1038.000
11.97500 995.000
11.99000 1011.000
12.00500 1036.000
12.02000 1040.000
12.03500 1080.000
12.05000 1133.000
12.06500 1241.000
12.08000 1271.000
12.09500 1347.000
12.11000 1343.000
12.12500 1470.000
12.14000 1537.000
12.15500 1730.000
12.17000 1908.000
12.18500 2039.000
12.20000 2280.000
12.21500 2453.000
12.23000 2693.000
12.24500 2782.000
12.26000 2918.000
12.27500 2808.000
12.29000 2687.000
12.30500 2414.000
12.32000 2093.000
12.33500 1788.000
12.35000 1587.000
12.36500 1348.000
12.38000 1220.000
12.39500 1098.000
12.41000 1070.000
12.42500 1044.000
12.44000 923.000
12.45500 849.000
12.47000 845.000
12.48500 820.000
12.50000 821.000
12.51500 809.000
12.53000 816.000
12.54500 758.000
12.56000 781.000
12.57500 792.000
12.59000 750.000
12.60500 789.000
12.62000 725.000
12.63500 718.000
12.65000 773.000
12.66500 763.000
12.68000 780.000
12.69500 784.000
12.71000 749.000
12.72500 748.000
12.74000 733.000
12.75500 788.000
12.77000 771.000
12.78500 802.000
12.80000 811.000
12.81500 825.000
12.83000 825.000
12.84500 804.000
12.86000 820.000
12.87500 862.000
12.89000 866.000
12.90500 926.000
12.92000 957.000
12.93500 984.000
12.95000 978.000
12.96500 1047.000
12.98000 1118.000
12.99500 1163.000
13.01000 1266.000
13.02500 1338.000
13.04000 1378.000
13.05500 1388.000
13.07000 1381.000
13.08500 1337.000
13.10000 1284.000
13.11500 1149.000
13.13000 1132.000
13.14500 1050.000
13.16000 1079.000
13.17500 1072.000
13.19000 1041.000
13.20500 1049.000
13.22000 1046.000
13.23500 1097.000
13.25000 1211.000
13.26500 1233.000
13.28000 1238.000
13.29500 1271.000
13.31000 1219.000
13.32500 1192.000
13.34000 1260.000
13.35500 1242.000
13.37000 1243.000
13.38500 1327.000
13.40000 1325.000
13.41500 1383.000
13.43000 1519.000
13.44500 1530.000
13.46000 1608.000
13.47500 1575.000
13.49000 1516.000
13.50500 1473.000
13.52000 1304.000
13.53500 1200.000
13.55000 1121.000
13.56500 1032.000
13.58000 959.000
13.59500 893.000
13.61000 820.000
13.62500 810.000
13.64000 798.000
13.65500 796.000
13.67000 776.000
13.68500 806.000
13.70000 790.000
13.71500 777.000
13.73000 772.000
13.74500 739.000
13.76000 830.000
13.77500 842.000
13.79000 762.000
13.80500 787.000
13.82000 756.000
13.83500 790.000
13.85000 785.000
13.86500 820.000
13.88000 869.000
13.89500 785.000
13.91000 811.000
13.92500 819.000
13.94000 813.000
13.95500 838.000
13.97000 874.000
13.98500 883.000
14.00000 921.000
14.01500 953.000
14.03000 943.000
14.04500 992.000
14.06000 1002.000
14.07500 1017.000
14.09000 974.000
14.10500 1080.000
14.12000 1072.000
14.13500 1070.000
14.15000 1122.000
14.16500 1188.000
14.18000 1264.000
14.19500 1290.000
14.21000 1332.000
14.22500 1338.000
14.24000 1378.000
14.25500 1390.000
14.27000 1328.000
14.28500 1349.000
14.30000 1223.000
14.31500 1132.000
14.33000 1103.000
14.34500 1074.000
14.36000 1077.000
14.37500 1100.000
14.39000 1093.000
14.40500 1059.000
14.42000 1083.000
14.43500 1121.000
14.45000 1146.000
14.46500 1222.000
14.48000 1274.000
14.49500 1387.000
14.51000 1494.000
14.52500 1590.000
14.54000 1716.000
14.55500 1804.000
14.57000 1971.000
14.58500 2162.000
14.60000 2385.000
14.61500 2534.000
14.63000 2602.000
14.64500 2717.000
14.66000 2692.000
14.67500 2530.000
14.69000 2410.000
14.70500 2254.000
14.72000 2080.000
14.73500 1970.000
14.75000 1833.000
14.76500 1764.000
14.78000 1712.000
14.79500 1766.000
14.81000 1875.000
14.82500 1975.000
14.84000 2126.000
14.85500 2255.000
14.87000 2440.000
14.88500 2529.000
14.90000 2851.000
14.91500 3104.000
14.93000 3392.000
14.94500 3702.000
14.96000 3978.000
14.97500 4163.000
14.99000 4199.000
15.00500 3938.000
15.02000 3436.000
15.03500 2895.000
15.05000 2363.000
15.06500 2003.000
15.08000 1647.000
15.09500 1465.000
15.11000 1259.000
15.12500 1171.000
15.14000 1134.000
15.15500 1033.000
15.17000 1015.000
15.18500 950.000
15.20000 879.000
15.21500 902.000
15.23000 855.000
15.24500 818.000
15.26000 837.000
15.27500 820.000
15.29000 784.000
15.30500 744.000
15.32000 764.000
15.33500 764.000
15.35000 783.000
15.36500 718.000
15.38000 767.000
15.39500 755.000
15.41000 729.000
15.42500 727.000
15.44000 708.000
15.45500 702.000
15.47000 708.000
15.48500 713.000
15.50000 718.000
15.51500 710.000
15.53000 753.000
15.54500 755.000
15.56000 731.000
15.57500 747.000
15.59000 670.000
15.60500 732.000
15.62000 715.000
15.63500 700.000
15.65000 718.000
15.66500 733.000
15.68000 763.000
15.69500 775.000
15.71000 736.000
15.72500 752.000
15.74000 739.000
15.75500 782.000
15.77000 770.000
15.78500 752.000
15.80000 824.000
15.81500 769.000
15.83000 817.000
15.84500 861.000
15.86000 906.000
15.87500 894.000
15.89000 969.000
15.90500 1057.000
15.92000 1066.000
15.93500 1130.000
15.95000 1197.000
15.96500 1275.000
15.98000 1392.000
15.99500 1517.000
16.01000 1719.000
16.02500 1809.000
16.04000 1983.000
16.05500 2091.000
16.07000 2219.000
16.08500 2163.000
16.10000 2132.000
16.11500 2183.000
16.13000 2224.000
16.14500 2278.000
16.16000 2456.000
16.17500 2479.000
16.19000 2579.000
16.20500 2566.000
16.22000 2550.000
16.23500 2416.000
16.25000 2254.000
16.26500 2044.000
16.28000 1919.000
16.29500 1778.000
16.31000 1587.000
16.32500 1480.000
16.34000 1465.000
16.35500 1423.000
16.37000 1411.000
16.38500 1463.000
16.40000 1536.000
16.41500 1675.000
16.43000 1704.000
16.44500 1729.000
16.46000 1795.000
16.47500 1722.000
16.49000 1615.000
16.50500 1509.000
16.52000 1326.000
16.53500 1322.000
16.55000 1240.000
16.56500 1260.000
16.58000 1247.000
16.59500 1304.000
16.61000 1310.000
16.62500 1394.000
16.64000 1541.000
16.65500 1645.000
16.67000 1783.000
16.68500 1922.000
16.70000 2156.000
16.71500 2401.000
16.73000 2700.000
16.74500 2906.000
16.76000 3265.000
16.77500 3593.000
16.79000 4078.000
16.80500 4569.000
16.82000 5121.000
16.83500 5479.000
16.85000 5631.000
16.86500 5657.000
16.88000 5380.000
16.89500 4923.000
16.91000 4296.000
16.92500 3779.000
16.94000 3175.000
16.95500 2812.000
16.97000 2494.000
16.98500 2319.000
17.00000 2181.000
17.01500 2089.000
17.03000 2096.000
17.04500 2058.000
17.06000 2121.000
17.07500 2214.000
17.09000 2216.000
17.10500 2207.000
17.12000 2286.000
17.13500 2301.000
17.15000 2307.000
17.16500 2363.000
17.18000 2493.000
17.19500 2579.000
17.21000 2846.000
17.22500 3029.000
17.24000 3260.000
17.25500 3360.000
17.27000 3373.000
17.28500 3419.000
17.30000 3295.000
17.31500 3063.000
17.33000 2766.000
17.34500 2388.000
17.36000 2042.000
17.37500 1855.000
17.39000 1673.000
17.40500 1511.000
17.42000 1326.000
17.43500 1260.000
17.45000 1266.000
17.46500 1253.000
17.48000 1278.000
17.49500 1310.000
17.51000 1339.000
17.52500 1414.000
17.54000 1629.000
17.55500 1650.000
17.57000 1831.000
17.58500 2102.000
17.60000 2305.000
17.61500 2520.000
17.63000 2863.000
17.64500 3213.000
17.66000 3642.000
17.67500 3965.000
17.69000 4453.000
17.70500 4675.000
17.72000 4743.000
17.73500 4652.000
17.75000 4428.000
17.76500 3859.000
17.78000 3452.000
17.79500 2973.000
17.81000 2714.000
17.82500 2507.000
17.84000 2393.000
17.85500 2344.000
17.87000 2404.000
17.88500 2325.000
17.90000 2342.000
17.91500 2357.000
17.93000 2237.000
17.94500 2106.000
17.96000 2052.000
17.97500 1864.000
17.99000 1647.000
18.00500 1564.000
18.02000 1425.000
18.03500 1239.000
18.05000 1116.000
18.06500 936.000
18.08000 896.000
18.09500 822.000
18.11000 792.000
18.12500 771.000
18.14000 737.000
18.15500 755.000
18.17000 697.000
18.18500 690.000
18.20000 664.000
18.21500 654.000
18.23000 735.000
18.24500 686.000
18.26000 656.000
18.27500 684.000
18.29000 701.000
18.30500 739.000
18.32000 712.000
18.33500 731.000
18.35000 724.000
18.36500 738.000
18.38000 756.000
18.39500 797.000
18.41000 843.000
18.42500 832.000
18.44000 902.000
18.45500 998.000
18.47000 1034.000
18.48500 1140.000
18.50000 1208.000
18.51500 1319.000
18.53000 1452.000
18.54500 1649.000
18.56000 1840.000
18.57500 2080.000
18.59000 2267.000
18.60500 2576.000
18.62000 2835.000
18.63500 3275.000
18.65000 3540.000
18.66500 3741.000
18.68000 3890.000
18.69500 3890.000
18.71000 3748.000
18.72500 3319.000
18.74000 2929.000
18.75500 2457.000
18.77000 2144.000
18.78500 1807.000
18.80000 1614.000
18.81500 1553.000
18.83000 1466.000
18.84500 1435.000
18.86000 1464.000
18.87500 1510.000
18.89000 1543.000
18.90500 1688.000
18.92000 1879.000
18.93500 2061.000
18.95000 2369.000
18.96500 2761.000
18.98000 3085.000
18.99500 3537.000
19.01000 4016.000
19.02500 4777.000
19.04000 5492.000
19.05500 6330.000
19.07000 6938.000
19.08500 7274.000
19.10000 7574.000
19.11500 7320.000
19.13000 6431.000
19.14500 5480.000
19.16000 4429.000
19.17500 3571.000
19.19000 2971.000
19.20500 2701.000
19.22000 2425.000
19.23500 2374.000
19.25000 2411.000
19.26500 2611.000
19.28000 2765.000
19.29500 3059.000
19.31000 3477.000
19.32500 3796.000
19.34000 4239.000
19.35500 4612.000
19.37000 5167.000
19.38500 5408.000
19.40000 5112.000
19.41500 4858.000
19.43000 4249.000
19.44500 3764.000
19.46000 3233.000
19.47500 2876.000
19.49000 2659.000
19.50500 2480.000
19.52000 2399.000
19.53500 2474.000
19.55000 2658.000
19.56500 2859.000
19.58000 3141.000
19.59500 3585.000
19.61000 4005.000
19.62500 4514.000
19.64000 4895.000
19.65500 5297.000
19.67000 5375.000
19.68500 5324.000
19.70000 5291.000
19.71500 5128.000
19.73000 5076.000
19.74500 5175.000
19.76000 5355.000
19.77500 5632.000
19.79000 5923.000
19.80500 6262.000
19.82000 6223.000
19.83500 6178.000
19.85000 5768.000
19.86500 5388.000
19.88000 4934.000
19.89500 4739.000
19.91000 4556.000
19.92500 4506.000
19.94000 4282.000
19.95500 4021.000
19.97000 3839.000
19.98500 3493.000
20.00000 3171.000
20.01500 2912.000
20.03000 2529.000
20.04500 2216.000
20.06000 1921.000
20.07500 1733.000
20.09000 1514.000
20.10500 1334.000
20.12000 1211.000
20.13500 1115.000
20.15000 1042.000
20.16500 1018.000
20.18000 1010.000
20.19500 987.000
20.21000 1008.000
20.22500 1001.000
20.24000 998.000
20.25500 967.000
20.27000 878.000
20.28500 839.000
20.30000 749.000
20.31500 710.000
20.33000 685.000
20.34500 637.000
20.36000 625.000
20.37500 603.000
20.39000 576.000
20.40500 533.000
20.42000 537.000
20.43500 541.000
20.45000 518.000
20.46500 551.000
20.48000 511.000
20.49500 533.000
20.51000 538.000
20.52500 533.000
20.54000 552.000
20.55500 541.000
20.57000 561.000
20.58500 576.000
20.60000 554.000
20.61500 572.000
20.63000 595.000
20.64500 614.000
20.66000 590.000
20.67500 630.000
20.69000 675.000
20.70500 710.000
20.72000 698.000
20.73500 779.000
20.75000 776.000
20.76500 794.000
20.78000 803.000
20.79500 802.000
20.81000 752.000
20.82500 738.000
20.84000 661.000
20.85500 628.000
20.87000 644.000
20.88500 621.000
20.90000 628.000
20.91500 704.000
20.93000 651.000
20.94500 686.000
20.96000 767.000
20.97500 803.000
20.99000 840.000
21.00500 866.000
21.02000 904.000
21.03500 982.000
21.05000 1054.000
21.06500 1060.000
21.08000 1068.000
21.09500 1045.000
21.11000 1017.000
21.12500 983.000
21.14000 967.000
21.15500 950.000
21.17000 962.000
21.18500 954.000
21.20000 965.000
21.21500 1046.000
21.23000 1018.000
21.24500 1039.000
21.26000 1088.000
21.27500 1135.000
21.29000 1195.000
21.30500 1243.000
21.32000 1278.000
21.33500 1410.000
21.35000 1443.000
21.36500 1552.000
21.38000 1689.000
21.39500 1740.000
21.41000 1772.000
21.42500 1727.000
21.44000 1708.000
21.45500 1667.000
21.47000 1598.000
21.48500 1568.000
21.50000 1583.000
21.51500 1686.000
21.53000 1834.000
21.54500 1974.000
21.56000 2132.000
21.57500 2208.000
21.59000 2192.000
21.60500 2178.000
21.62000 2052.000
21.63500 1871.000
21.65000 1631.000
21.66500 1429.000
21.68000 1340.000
21.69500 1261.000
21.71000 1156.000
21.72500 1125.000
21.74000 1129.000
21.75500 1064.000
21.77000 1027.000
21.78500 941.000
21.80000 861.000
21.81500 751.000
21.83000 706.000
21.84500 712.000
21.86000 668.000
21.87500 631.000
21.89000 588.000
21.90500 574.000
21.92000 564.000
21.93500 602.000
21.95000 635.000
21.96500 643.000
21.98000 748.000
21.99500 763.000
22.01000 844.000
22.02500 882.000
22.04000 966.000
22.05500 1031.000
22.07000 1112.000
22.08500 1141.000
22.10000 1095.000
22.11500 1048.000
22.13000 967.000
22.14500 876.000
22.16000 769.000
22.17500 721.000
22.19000 621.000
22.20500 581.000
22.22000 570.000
22.23500 539.000
22.25000 500.000
22.26500 511.000
22.28000 489.000
22.29500 474.000
22.31000 463.000
22.32500 432.000
22.34000 383.000
22.35500 433.000
22.37000 409.000
22.38500 425.000
22.40000 427.000
22.41500 391.000
22.43000 385.000
22.44500 391.000
22.46000 425.000
22.47500 439.000
22.49000 446.000
22.50500 446.000
22.52000 434.000
22.53500 434.000
22.55000 447.000
22.56500 459.000
22.58000 419.000
22.59500 415.000
22.61000 429.000
22.62500 432.000
22.64000 436.000
22.65500 434.000
22.67000 432.000
22.68500 447.000
22.70000 440.000
22.71500 438.000
22.73000 458.000
22.74500 485.000
22.76000 472.000
22.77500 505.000
22.79000 542.000
22.80500 579.000
22.82000 563.000
22.83500 626.000
22.85000 660.000
22.86500 673.000
22.88000 675.000
22.89500 701.000
22.91000 650.000
22.92500 634.000
22.94000 605.000
22.95500 589.000
22.97000 592.000
22.98500 584.000
23.00000 575.000
23.01500 601.000
23.03000 587.000
23.04500 618.000
23.06000 595.000
23.07500 620.000
23.09000 625.000
23.10500 576.000
23.12000 546.000
23.13500 532.000
23.15000 485.000
23.16500 461.000
23.18000 481.000
23.19500 530.000
23.21000 516.000
23.22500 514.000
23.24000 523.000
23.25500 496.000
23.27000 517.000
23.28500 529.000
23.30000 545.000
23.31500 604.000
23.33000 648.000
23.34500 686.000
23.36000 638.000
23.37500 656.000
23.39000 688.000
23.40500 714.000
23.42000 767.000
23.43500 775.000
23.45000 770.000
23.46500 807.000
23.48000 800.000
23.49500 744.000
23.51000 710.000
23.52500 668.000
23.54000 637.000
23.55500 632.000
23.57000 642.000
23.58500 627.000
23.60000 631.000
23.61500 677.000
23.63000 713.000
23.64500 768.000
23.66000 809.000
23.67500 854.000
23.69000 838.000
23.70500 863.000
23.72000 795.000
23.73500 723.000
23.75000 758.000
23.76500 810.000
23.78000 767.000
23.79500 764.000
23.81000 806.000
23.82500 848.000
23.84000 939.000
23.85500 998.000
23.87000 1103.000
23.88500 1149.000
23.90000 1241.000
23.91500 1273.000
23.93000 1283.000
23.94500 1306.000
23.96000 1157.000
23.97500 1050.000
23.99000 957.000
24.00500 833.000
24.02000 753.000
24.03500 733.000
24.05000 696.000
24.06500 714.000
24.08000 647.000
24.09500 670.000
24.11000 711.000
24.12500 692.000
24.14000 727.000
24.15500 717.000
24.17000 723.000
24.18500 775.000
24.20000 755.000
24.21500 703.000
24.23000 688.000
24.24500 592.000
24.26000 574.000
24.27500 560.000
24.29000 537.000
24.30500 510.000
24.32000 514.000
24.33500 495.000
24.35000 523.000
24.36500 493.000
24.38000 488.000
24.39500 476.000
24.41000 489.000
24.42500 464.000
24.44000 484.000
24.45500 474.000
24.47000 463.000
24.48500 444.000
24.50000 473.000
24.51500 499.000
24.53000 477.000
24.54500 472.000
24.56000 468.000
24.57500 509.000
24.59000 524.000
24.60500 594.000
24.62000 596.000
24.63500 593.000
24.65000 673.000
24.66500 764.000
24.68000 821.000
24.69500 881.000
24.71000 872.000
24.72500 884.000
24.74000 934.000
24.75500 880.000
24.77000 768.000
24.78500 740.000
24.80000 694.000
24.81500 620.000
24.83000 625.000
24.84500 622.000
24.86000 652.000
24.87500 629.000
24.89000 605.000
24.90500 607.000
24.92000 595.000
24.93500 593.000
24.95000 563.000
24.96500 528.000
24.98000 525.000
24.99500 504.000
25.01000 527.000
25.02500 510.000
25.04000 529.000
25.05500 535.000
25.07000 538.000
25.08500 508.000
25.10000 532.000
25.11500 575.000
25.13000 553.000
25.14500 600.000
25.16000 636.000
25.17500 692.000
25.19000 784.000
25.20500 858.000
25.22000 978.000
25.23500 1022.000
25.25000 1191.000
25.26500 1385.000
25.28000 1533.000
25.29500 1672.000
25.31000 1895.000
25.32500 2028.000
25.34000 2013.000
25.35500 1973.000
25.37000 1867.000
25.38500 1696.000
25.40000 1622.000
25.41500 1545.000
25.43000 1454.000
25.44500 1402.000
25.46000 1304.000
25.47500 1199.000
25.49000 1155.000
25.50500 1076.000
25.52000 968.000
25.53500 913.000
25.55000 818.000
25.56500 850.000
25.58000 813.000
25.59500 821.000
25.61000 837.000
25.62500 908.000
25.64000 981.000
25.65500 1069.000
25.67000 1205.000
25.68500 1320.000
25.70000 1510.000
25.71500 1669.000
25.73000 1873.000
25.74500 2060.000
25.76000 2063.000
25.77500 2102.000
25.79000 2013.000
25.80500 1859.000
25.82000 1655.000
25.83500 1481.000
25.85000 1303.000
25.86500 1268.000
25.88000 1202.000
25.89500 1202.000
25.91000 1230.000
25.92500 1149.000
25.94000 1104.000
25.95500 1068.000
25.97000 977.000
25.98500 865.000
26.00000 777.000
26.01500 727.000
26.03000 718.000
26.04500 643.000
26.06000 642.000
26.07500 612.000
26.09000 564.000
26.10500 605.000
26.12000 591.000
26.13500 634.000
26.15000 625.000
26.16500 659.000
26.18000 663.000
26.19500 651.000
26.21000 728.000
26.22500 709.000
26.24000 698.000
26.25500 756.000
26.27000 741.000
26.28500 766.000
26.30000 799.000
26.31500 787.000
26.33000 824.000
26.34500 843.000
26.36000 778.000
26.37500 727.000
26.39000 660.000
26.40500 580.000
26.42000 569.000
26.43500 549.000
26.45000 491.000
26.46500 463.000
26.48000 490.000
26.49500 483.000
26.51000 481.000
26.52500 492.000
26.54000 484.000
26.55500 479.000
26.57000 499.000
26.58500 513.000
26.60000 476.000
26.61500 498.000
26.63000 513.000
26.64500 537.000
26.66000 559.000
26.67500 619.000
26.69000 646.000
26.70500 684.000
26.72000 762.000
26.73500 798.000
26.75000 883.000
26.76500 911.000
26.78000 986.000
26.79500 1056.000
26.81000 1078.000
26.82500 1121.000
26.84000 1174.000
26.85500 1159.000
26.87000 1119.000
26.88500 1110.000
26.90000 1050.000
26.91500 1035.000
26.93000 1078.000
26.94500 1057.000
26.96000 1015.000
26.97500 989.000
26.99000 974.000
27.00500 960.000
27.02000 952.000
27.03500 983.000
27.05000 943.000
27.06500 929.000
27.08000 952.000
27.09500 996.000
27.11000 1066.000
27.12500 1129.000
27.14000 1250.000
27.15500 1336.000
27.17000 1412.000
27.18500 1506.000
27.20000 1471.000
27.21500 1411.000
27.23000 1244.000
27.24500 1119.000
27.26000 1018.000
27.27500 968.000
27.29000 911.000
27.30500 814.000
27.32000 771.000
27.33500 724.000
27.35000 683.000
27.36500 611.000
27.38000 622.000
27.39500 624.000
27.41000 560.000
27.42500 546.000
27.44000 541.000
27.45500 527.000
27.47000 528.000
27.48500 524.000
27.50000 556.000
27.51500 616.000
27.53000 621.000
27.54500 664.000
27.56000 726.000
27.57500 771.000
27.59000 842.000
27.60500 921.000
27.62000 1061.000
27.63500 1179.000
27.65000 1313.000
27.66500 1414.000
27.68000 1515.000
27.69500 1668.000
27.71000 1691.000
27.72500 1701.000
27.74000 1655.000
27.75500 1528.000
27.77000 1418.000
27.78500 1264.000
27.80000 1117.000
27.81500 1081.000
27.83000 980.000
27.84500 822.000
27.86000 821.000
27.87500 715.000
27.89000 651.000
27.90500 611.000
27.92000 551.000
27.93500 514.000
27.95000 513.000
27.96500 507.000
27.98000 517.000
27.99500 485.000
28.01000 484.000
28.02500 472.000
28.04000 475.000
28.05500 467.000
28.07000 454.000
28.08500 487.000
28.10000 469.000
28.11500 452.000
28.13000 481.000
28.14500 499.000
28.16000 521.000
28.17500 511.000
28.19000 512.000
28.20500 541.000
28.22000 582.000
28.23500 606.000
28.25000 607.000
28.26500 593.000
28.28000 631.000
28.29500 690.000
28.31000 708.000
28.32500 774.000
28.34000 807.000
28.35500 888.000
28.37000 1016.000
28.38500 1105.000
28.40000 1138.000
28.41500 1247.000
28.43000 1244.000
28.44500 1304.000
28.46000 1282.000
28.47500 1303.000
28.49000 1221.000
28.50500 1090.000
28.52000 1013.000
28.53500 926.000
28.55000 926.000
28.56500 878.000
28.58000 877.000
28.59500 961.000
28.61000 959.000
28.62500 1017.000
28.64000 1065.000
28.65500 1225.000
28.67000 1386.000
28.68500 1531.000
28.70000 1723.000
28.71500 1834.000
28.73000 1941.000
28.74500 1888.000
28.76000 1890.000
28.77500 1815.000
28.79000 1667.000
28.80500 1533.000
28.82000 1451.000
28.83500 1338.000
28.85000 1245.000
28.86500 1148.000
28.88000 1047.000
28.89500 1073.000
28.91000 1009.000
28.92500 1052.000
28.94000 1126.000
28.95500 1197.000
28.97000 1237.000
28.98500 1369.000
29.00000 1475.000
29.01500 1540.000
29.03000 1644.000
29.04500 1780.000
29.06000 1872.000
29.07500 1975.000
29.09000 2102.000
29.10500 2145.000
29.12000 2177.000
29.13500 2089.000
29.15000 1846.000
29.16500 1662.000
29.18000 1384.000
29.19500 1172.000
29.21000 987.000
29.22500 872.000
29.24000 815.000
29.25500 724.000
29.27000 681.000
29.28500 666.000
29.30000 608.000
29.31500 588.000
29.33000 559.000
29.34500 554.000
29.36000 571.000
29.37500 580.000
29.39000 546.000
29.40500 611.000
29.42000 611.000
29.43500 630.000
29.45000 680.000
29.46500 735.000
29.48000 803.000
29.49500 874.000
29.51000 958.000
29.52500 1044.000
29.54000 1070.000
29.55500 1118.000
29.57000 1157.000
29.58500 1201.000
29.60000 1327.000
29.61500 1275.000
29.63000 1273.000
29.64500 1277.000
29.66000 1186.000
29.67500 1156.000
29.69000 1109.000
29.70500 1102.000
29.72000 1021.000
29.73500 935.000
29.75000 824.000
29.76500 729.000
29.78000 680.000
29.79500 663.000
29.81000 613.000
29.82500 592.000
29.84000 568.000
29.85500 545.000
29.87000 594.000
29.88500 587.000
29.90000 602.000
29.91500 588.000
29.93000 605.000
29.94500 605.000
29.96000 604.000
29.97500 614.000
29.99000 573.000
30.00500 568.000
30.02000 585.000
30.03500 596.000
30.05000 599.000
30.06500 564.000
30.08000 594.000
30.09500 596.000
30.11000 683.000
30.12500 659.000
30.14000 699.000
30.15500 702.000
30.17000 772.000
30.18500 826.000
30.20000 900.000
30.21500 972.000
30.23000 1070.000
30.24500 1140.000
30.26000 1201.000
30.27500 1238.000
30.29000 1222.000
30.30500 1236.000
30.32000 1210.000
30.33500 1235.000
30.35000 1147.000
30.36500 1070.000
30.38000 1033.000
30.39500 959.000
30.41000 912.000
30.42500 815.000
30.44000 776.000
30.45500 653.000
30.47000 611.000
30.48500 559.000
30.50000 559.000
30.51500 526.000
30.53000 538.000
30.54500 527.000
30.56000 496.000
30.57500 499.000
30.59000 523.000
30.60500 567.000
30.62000 601.000
30.63500 602.000
30.65000 565.000
30.66500 639.000
30.68000 659.000
30.69500 661.000
30.71000 616.000
30.72500 647.000
30.74000 644.000
30.75500 623.000
30.77000 629.000
30.78500 596.000
30.80000 578.000
30.81500 552.000
30.83000 531.000
30.84500 533.000
30.86000 510.000
30.87500 508.000
30.89000 506.000
30.90500 456.000
30.92000 456.000
30.93500 472.000
30.95000 457.000
30.96500 441.000
30.98000 451.000
30.99500 473.000
31.01000 508.000
31.02500 533.000
31.04000 569.000
31.05500 617.000
31.07000 628.000
31.08500 656.000
31.10000 707.000
31.11500 745.000
31.13000 738.000
31.14500 779.000
31.16000 848.000
31.17500 926.000
31.19000 997.000
31.20500 1029.000
31.22000 1066.000
31.23500 1092.000
31.25000 1049.000
31.26500 1034.000
31.28000 969.000
31.29500 931.000
31.31000 903.000
31.32500 865.000
31.34000 861.000
31.35500 762.000
31.37000 716.000
31.38500 761.000
31.40000 739.000
31.41500 696.000
31.43000 721.000
31.44500 658.000
31.46000 650.000
31.47500 648.000
31.49000 627.000
31.50500 616.000
31.52000 626.000
31.53500 612.000
31.55000 577.000
31.56500 553.000
31.58000 518.000
31.59500 537.000
31.61000 497.000
31.62500 509.000
31.64000 513.000
31.65500 499.000
31.67000 473.000
31.68500 488.000
31.70000 489.000
31.71500 521.000
31.73000 515.000
31.74500 517.000
31.76000 524.000
31.77500 517.000
31.79000 504.000
31.80500 471.000
31.82000 479.000
31.83500 424.000
31.85000 408.000
31.86500 364.000
31.88000 392.000
31.89500 383.000
31.91000 395.000
31.92500 393.000
31.94000 406.000
31.95500 451.000
31.97000 433.000
31.98500 456.000
32.00000 473.000
32.01500 535.000
32.03000 547.000
32.04500 559.000
32.06000 560.000
32.07500 545.000
32.09000 566.000
32.10500 516.000
32.12000 510.000
32.13500 466.000
32.15000 464.000
32.16500 448.000
32.18000 430.000
32.19500 450.000
32.21000 409.000
32.22500 393.000
32.24000 391.000
32.25500 412.000
32.27000 430.000
32.28500 407.000
32.30000 418.000
32.31500 415.000
32.33000 398.000
32.34500 386.000
32.36000 410.000
32.37500 396.000
32.39000 378.000
32.40500 362.000
32.42000 380.000
32.43500 371.000
32.45000 382.000
32.46500 370.000
32.48000 370.000
32.49500 386.000
32.51000 390.000
32.52500 370.000
32.54000 381.000
32.55500 397.000
32.57000 396.000
32.58500 408.000
32.60000 405.000
32.61500 394.000
32.63000 416.000
32.64500 431.000
32.66000 418.000
32.67500 469.000
32.69000 498.000
32.70500 529.000
32.72000 553.000
32.73500 643.000
32.75000 682.000
32.76500 753.000
32.78000 807.000
32.79500 897.000
32.81000 912.000
32.82500 969.000
32.84000 1007.000
32.85500 1020.000
32.87000 1023.000
32.88500 1064.000
32.90000 1082.000
32.91500 1019.000
32.93000 1079.000
32.94500 1160.000
32.96000 1110.000
32.97500 1139.000
32.99000 1148.000
33.00500 1158.000
33.02000 1172.000
33.03500 1247.000
33.05000 1195.000
33.06500 1259.000
33.08000 1311.000
33.09500 1367.000
33.11000 1431.000
33.12500 1403.000
33.14000 1355.000
33.15500 1317.000
33.17000 1314.000
33.18500 1233.000
33.20000 1229.000
33.21500 1185.000
33.23000 1212.000
33.24500 1157.000
33.26000 1092.000
33.27500 1074.000
33.29000 1059.000
33.30500 1038.000
33.32000 1032.000
33.33500 983.000
33.35000 952.000
33.36500 931.000
33.38000 949.000
33.39500 1012.000
33.41000 993.000
33.42500 1014.000
33.44000 1023.000
33.45500 975.000
33.47000 896.000
33.48500 891.000
33.50000 870.000
33.51500 827.000
33.53000 836.000
33.54500 845.000
33.56000 837.000
33.57500 796.000
33.59000 757.000
33.60500 747.000
33.62000 767.000
33.63500 800.000
33.65000 834.000
33.66500 901.000
33.68000 932.000
33.69500 1002.000
33.71000 1108.000
33.72500 1174.000
33.74000 1206.000
33.75500 1264.000
33.77000 1302.000
33.78500 1290.000
33.80000 1238.000
33.81500 1167.000
33.83000 1066.000
33.84500 945.000
33.86000 843.000
33.87500 734.000
33.89000 696.000
33.90500 645.000
33.92000 667.000
33.93500 670.000
33.95000 658.000
33.96500 678.000
33.98000 700.000
33.99500 774.000
34.01000 792.000
34.02500 883.000
34.04000 924.000
34.05500 1046.000
34.07000 1135.000
34.08500 1256.000
34.10000 1346.000
34.11500 1402.000
34.13000 1524.000
34.14500 1636.000
34.16000 1697.000
34.17500 1733.000
34.19000 1872.000
34.20500 1939.000
34.22000 2072.000
34.23500 2131.000
34.25000 2179.000
34.26500 2277.000
34.28000 2356.000
34.29500 2373.000
34.31000 2274.000
34.32500 2122.000
34.34000 1906.000
34.35500 1658.000
34.37000 1476.000
34.38500 1342.000
34.40000 1219.000
34.41500 1128.000
34.43000 1058.000
34.44500 972.000
34.46000 957.000
34.47500 902.000
34.49000 821.000
34.50500 790.000
34.52000 805.000
34.53500 787.000
34.55000 748.000
34.56500 740.000
34.58000 804.000
34.59500 814.000
34.61000 825.000
34.62500 936.000
34.64000 955.000
34.65500 1027.000
34.67000 997.000
34.68500 1044.000
34.70000 1030.000
34.71500 1042.000
34.73000 1063.000
34.74500 1047.000
34.76000 1086.000
34.77500 1092.000
34.79000 1128.000
34.80500 1055.000
34.82000 972.000
34.83500 871.000
34.85000 773.000
34.86500 730.000
34.88000 715.000
34.89500 598.000
34.91000 613.000
34.92500 594.000
34.94000 589.000
34.95500 562.000
34.97000 542.000
34.98500 546.000
35.00000 526.000
35.01500 539.000
35.03000 485.000
35.04500 468.000
35.06000 476.000
35.07500 479.000
35.09000 439.000
35.10500 414.000
35.12000 424.000
35.13500 403.000
35.15000 426.000
35.16500 459.000
35.18000 452.000
35.19500 479.000
35.21000 493.000
35.22500 548.000
35.24000 570.000
35.25500 668.000
35.27000 689.000
35.28500 692.000
35.30000 703.000
35.31500 728.000
35.33000 661.000
35.34500 655.000
35.36000 573.000
35.37500 521.000
35.39000 514.000
35.40500 501.000
35.42000 458.000
35.43500 447.000
35.45000 457.000
35.46500 474.000
35.48000 454.000
35.49500 462.000
35.51000 446.000
35.52500 488.000
35.54000 530.000
35.55500 547.000
35.57000 540.000
35.58500 548.000
35.60000 559.000
35.61500 563.000
35.63000 609.000
35.64500 616.000
35.66000 641.000
35.67500 656.000
35.69000 667.000
35.70500 756.000
35.72000 747.000
35.73500 804.000
35.75000 826.000
35.76500 894.000
35.78000 900.000
35.79500 855.000
35.81000 822.000
35.82500 844.000
35.84000 878.000
35.85500 863.000
35.87000 857.000
35.88500 840.000
35.90000 872.000
35.91500 870.000
35.93000 860.000
35.94500 846.000
35.96000 810.000
35.97500 778.000
35.99000 677.000
36.00500 612.000
36.02000 604.000
36.03500 559.000
36.05000 557.000
36.06500 513.000
36.08000 459.000
36.09500 469.000
36.11000 477.000
36.12500 446.000
36.14000 438.000
36.15500 459.000
36.17000 434.000
36.18500 436.000
36.20000 436.000
36.21500 453.000
36.23000 500.000
36.24500 493.000
36.26000 547.000
36.27500 575.000
36.29000 607.000
36.30500 588.000
36.32000 633.000
36.33500 609.000
36.35000 656.000
36.36500 630.000
36.38000 655.000
36.39500 626.000
36.41000 574.000
36.42500 560.000
36.44000 508.000
36.45500 519.000
36.47000 474.000
36.48500 460.000
36.50000 424.000
36.51500 430.000
36.53000 435.000
36.54500 412.000
36.56000 385.000
36.57500 433.000
36.59000 389.000
36.60500 401.000
36.62000 432.000
36.63500 459.000
36.65000 471.000
36.66500 489.000
36.68000 516.000
36.69500 509.000
36.71000 521.000
36.72500 459.000
36.74000 434.000
36.75500 430.000
36.77000 431.000
36.78500 393.000
36.80000 418.000
36.81500 423.000
36.83000 433.000
36.84500 474.000
36.86000 527.000
36.87500 539.000
36.89000 554.000
36.90500 563.000
36.92000 632.000
36.93500 709.000
36.95000 722.000
36.96500 831.000
36.98000 900.000
36.99500 968.000
37.01000 964.000
37.02500 976.000
37.04000 986.000
37.05500 995.000
37.07000 956.000
37.08500 921.000
37.10000 837.000
37.11500 763.000
37.13000 776.000
37.14500 733.000
37.16000 654.000
37.17500 632.000
37.19000 605.000
37.20500 584.000
37.22000 600.000
37.23500 577.000
37.25000 602.000
37.26500 628.000
37.28000 654.000
37.29500 676.000
37.31000 691.000
37.32500 717.000
37.34000 676.000
37.35500 661.000
37.37000 649.000
37.38500 630.000
37.40000 632.000
37.41500 581.000
37.43000 578.000
37.44500 619.000
37.46000 642.000
37.47500 660.000
37.49000 718.000
37.50500 731.000
37.52000 693.000
37.53500 670.000
37.55000 643.000
37.56500 568.000
37.58000 523.000
37.59500 500.000
37.61000 504.000
37.62500 477.000
37.64000 451.000
37.65500 408.000
37.67000 451.000
37.68500 410.000
37.70000 402.000
37.71500 408.000
37.73000 430.000
37.74500 475.000
37.76000 445.000
37.77500 447.000
37.79000 448.000
37.80500 484.000
37.82000 543.000
37.83500 563.000
37.85000 646.000
37.86500 681.000
37.88000 706.000
37.89500 748.000
37.91000 839.000
37.92500 871.000
37.94000 883.000
37.95500 944.000
37.97000 936.000
37.98500 981.000
38.00000 969.000
38.01500 916.000
38.03000 862.000
38.04500 847.000
38.06000 810.000
38.07500 714.000
38.09000 682.000
38.10500 676.000
38.12000 610.000
38.13500 578.000
38.15000 547.000
38.16500 593.000
38.18000 614.000
38.19500 644.000
38.21000 655.000
38.22500 695.000
38.24000 742.000
38.25500 706.000
38.27000 689.000
38.28500 688.000
38.30000 640.000
38.31500 617.000
38.33000 595.000
38.34500 594.000
38.36000 569.000
38.37500 581.000
38.39000 550.000
38.40500 564.000
38.42000 573.000
38.43500 610.000
38.45000 696.000
38.46500 661.000
38.48000 708.000
38.49500 746.000
38.51000 794.000
38.52500 828.000
38.54000 833.000
38.55500 803.000
38.57000 762.000
38.58500 718.000
38.60000 692.000
38.61500 653.000
38.63000 615.000
38.64500 643.000
38.66000 612.000
38.67500 554.000
38.69000 616.000
38.70500 615.000
38.72000 642.000
38.73500 602.000
38.75000 639.000
38.76500 691.000
38.78000 681.000
38.79500 679.000
38.81000 672.000
38.82500 692.000
38.84000 660.000
38.85500 644.000
38.87000 667.000
38.88500 710.000
38.90000 734.000
38.91500 734.000
38.93000 735.000
38.94500 741.000
38.96000 776.000
38.97500 777.000
38.99000 755.000
39.00500 700.000
39.02000 620.000
39.03500 582.000
39.05000 532.000
39.06500 503.000
39.08000 455.000
39.09500 411.000
39.11000 423.000
39.12500 422.000
39.14000 381.000
39.15500 402.000
39.17000 409.000
39.18500 395.000
39.20000 398.000
39.21500 387.000
39.23000 375.000
39.24500 387.000
39.26000 382.000
39.27500 391.000
39.29000 372.000
39.30500 396.000
39.32000 415.000
39.33500 410.000
39.35000 398.000
39.36500 475.000
39.38000 494.000
39.39500 489.000
39.41000 516.000
39.42500 538.000
39.44000 565.000
39.45500 546.000
39.47000 560.000
39.48500 571.000
39.50000 558.000
39.51500 545.000
39.53000 581.000
39.54500 575.000
39.56000 583.000
39.57500 587.000
39.59000 553.000
39.60500 557.000
39.62000 544.000
39.63500 524.000
39.65000 487.000
39.66500 482.000
39.68000 429.000
39.69500 394.000
39.71000 388.000
39.72500 386.000
39.74000 390.000
39.75500 370.000
39.77000 361.000
39.78500 378.000
39.80000 360.000
39.81500 386.000
39.83000 416.000
39.84500 437.000
39.86000 470.000
39.87500 429.000
39.89000 511.000
39.90500 526.000
39.92000 558.000
39.93500 563.000
39.95000 577.000
39.96500 603.000
39.98000 625.000
39.99500 627.000
40.01000 637.000
40.02500 633.000
40.04000 580.000
40.05500 550.000
40.07000 532.000
40.08500 501.000
40.10000 479.000
40.11500 497.000
40.13000 515.000
40.14500 522.000
40.16000 501.000
40.17500 490.000
40.19000 486.000
40.20500 482.000
40.22000 468.000
40.23500 485.000
40.25000 492.000
40.26500 480.000
40.28000 482.000
40.29500 471.000
40.31000 472.000
40.32500 459.000
40.34000 474.000
40.35500 461.000
40.37000 467.000
40.38500 454.000
40.40000 467.000
40.41500 449.000
40.43000 436.000
40.44500 461.000
40.46000 466.000
40.47500 525.000
40.49000 551.000
40.50500 617.000
40.52000 587.000
40.53500 616.000
40.55000 668.000
40.56500 693.000
40.58000 666.000
40.59500 666.000
40.61000 636.000
40.62500 654.000
40.64000 624.000
40.65500 610.000
40.67000 612.000
40.68500 567.000
40.70000 564.000
40.71500 521.000
40.73000 511.000
40.74500 496.000
40.76000 449.000
40.77500 424.000
40.79000 423.000
40.80500 432.000
40.82000 420.000
40.83500 378.000
40.85000 417.000
40.86500 393.000
40.88000 386.000
40.89500 370.000
40.91000 379.000
40.92500 385.000
40.94000 376.000
40.95500 410.000
40.97000 419.000
40.98500 406.000
41.00000 407.000
41.01500 393.000
41.03000 387.000
41.04500 410.000
41.06000 402.000
41.07500 435.000
41.09000 458.000
41.10500 424.000
41.12000 450.000
41.13500 497.000
41.15000 531.000
41.16500 538.000
41.18000 552.000
41.19500 576.000
41.21000 609.000
41.22500 676.000
41.24000 657.000
41.25500 715.000
41.27000 721.000
41.28500 775.000
41.30000 802.000
41.31500 794.000
41.33000 811.000
41.34500 755.000
41.36000 709.000
41.37500 638.000
41.39000 569.000
41.40500 506.000
41.42000 472.000
41.43500 451.000
41.45000 414.000
41.46500 379.000
41.48000 388.000
41.49500 368.000
41.51000 371.000
41.52500 392.000
41.54000 388.000
41.55500 419.000
41.57000 472.000
41.58500 477.000
41.60000 507.000
41.61500 543.000
41.63000 552.000
41.64500 605.000
41.66000 623.000
41.67500 610.000
41.69000 655.000
41.70500 656.000
41.72000 630.000
41.73500 685.000
41.75000 662.000
41.76500 668.000
41.78000 678.000
41.79500 654.000
41.81000 640.000
41.82500 629.000
41.84000 615.000
41.85500 562.000
41.87000 580.000
41.88500 520.000
41.90000 492.000
41.91500 484.000
41.93000 463.000
41.94500 458.000
41.96000 486.000
41.97500 452.000
41.99000 454.000
42.00500 487.000
42.02000 512.000
42.03500 512.000
42.05000 558.000
42.06500 609.000
42.08000 644.000
42.09500 689.000
42.11000 800.000
42.12500 852.000
42.14000 842.000
42.15500 909.000
42.17000 799.000
42.18500 792.000
42.20000 706.000
42.21500 688.000
42.23000 646.000
42.24500 580.000
42.26000 519.000
42.27500 512.000
42.29000 502.000
42.30500 445.000
42.32000 453.000
42.33500 434.000
42.35000 462.000
42.36500 431.000
42.38000 426.000
42.39500 438.000
42.41000 465.000
42.42500 489.000
42.44000 535.000
42.45500 564.000
42.47000 610.000
42.48500 625.000
42.50000 654.000
42.51500 722.000
42.53000 725.000
42.54500 794.000
42.56000 757.000
42.57500 792.000
42.59000 777.000
42.60500 750.000
42.62000 726.000
42.63500 705.000
42.65000 632.000
42.66500 617.000
42.68000 584.000
42.69500 582.000
42.71000 563.000
42.72500 549.000
42.74000 557.000
42.75500 585.000
42.77000 580.000
42.78500 601.000
42.80000 647.000
42.81500 672.000
42.83000 667.000
42.84500 680.000
42.86000 654.000
42.87500 666.000
42.89000 721.000
42.90500 683.000
42.92000 708.000
42.93500 745.000
42.95000 739.000
42.96500 754.000
42.98000 765.000
42.99500 729.000
43.01000 734.000
43.02500 730.000
43.04000 689.000
43.05500 726.000
43.07000 721.000
43.08500 705.000
43.10000 741.000
43.11500 799.000
43.13000 833.000
43.14500 814.000
43.16000 834.000
43.17500 840.000
43.19000 746.000
43.20500 769.000
43.22000 752.000
43.23500 716.000
43.25000 707.000
43.26500 717.000
43.28000 720.000
43.29500 683.000
43.31000 698.000
43.32500 659.000
43.34000 583.000
43.35500 554.000
43.37000 550.000
43.38500 536.000
43.40000 524.000
43.41500 536.000
43.43000 562.000
43.44500 531.000
43.46000 584.000
43.47500 627.000
43.49000 641.000
43.50500 630.000
43.52000 681.000
43.53500 710.000
43.55000 678.000
43.56500 652.000
43.58000 628.000
43.59500 635.000
43.61000 627.000
43.62500 614.000
43.64000 590.000
43.65500 594.000
43.67000 570.000
43.68500 563.000
43.70000 526.000
43.71500 531.000
43.73000 516.000
43.74500 532.000
43.76000 544.000
43.77500 499.000
43.79000 517.000
43.80500 541.000
43.82000 523.000
43.83500 492.000
43.85000 451.000
43.86500 423.000
43.88000 410.000
43.89500 432.000
43.91000 397.000
43.92500 378.000
43.94000 390.000
43.95500 405.000
43.97000 398.000
43.98500 432.000
44.00000 418.000
44.01500 443.000
44.03000 453.000
44.04500 467.000
44.06000 496.000
44.07500 516.000
44.09000 524.000
44.10500 524.000
44.12000 527.000
44.13500 546.000
44.15000 552.000
44.16500 531.000
44.18000 509.000
44.19500 472.000
44.21000 453.000
44.22500 419.000
44.24000 422.000
44.25500 425.000
44.27000 416.000
44.28500 395.000
44.30000 404.000
44.31500 401.000
44.33000 394.000
44.34500 415.000
44.36000 391.000
44.37500 391.000
44.39000 389.000
44.40500 391.000
44.42000 372.000
44.43500 372.000
44.45000 407.000
44.46500 432.000
44.48000 442.000
44.49500 427.000
44.51000 509.000
44.52500 495.000
44.54000 531.000
44.55500 608.000
44.57000 635.000
44.58500 654.000
44.60000 651.000
44.61500 692.000
44.63000 658.000
44.64500 644.000
44.66000 575.000
44.67500 537.000
44.69000 506.000
44.70500 456.000
44.72000 432.000
44.73500 408.000
44.75000 414.000
44.76500 392.000
44.78000 394.000
44.79500 405.000
44.81000 413.000
44.82500 408.000
44.84000 405.000
44.85500 396.000
44.87000 416.000
44.88500 376.000
44.90000 383.000
44.91500 369.000
44.93000 371.000
44.94500 336.000
44.96000 333.000
44.97500 346.000
44.99000 349.000
